#Date:= 2024-10-08T16:21:10.335739
#Sampling Rate(Hz):= 1000
#Labels:= LOD	ECG	TS
1	1646	20
1	1646	21
1	1642	22
1	1637	23
1	1630	24
1	1622	25
1	1623	26
1	1629	27
1	1643	28
1	1658	29
1	1674	30
1	1685	31
1	1687	32
1	1682	33
1	1670	34
1	1657	35
1	1645	36
1	1634	37
1	1622	38
1	1607	39
1	1610	40
1	1613	41
1	1611	42
1	1606	43
1	1610	44
1	1629	45
1	1654	46
1	1675	47
1	1692	48
1	1712	49
1	1730	50
1	1738	51
1	1738	52
1	1740	53
1	1740	54
1	1738	55
1	1737	56
1	1738	57
1	1738	58
1	1734	59
1	1730	60
1	1728	61
1	1724	62
1	1719	63
1	1720	64
1	1720	65
1	1717	66
1	1716	67
1	1718	68
1	1715	69
1	1719	70
1	1725	71
1	1733	72
1	1738	73
1	1742	74
1	1746	75
1	1752	76
1	1754	77
1	1753	78
1	1750	79
1	1739	80
1	1727	81
1	1705	82
1	1677	83
1	1649	84
1	1634	85
1	1626	86
1	1629	87
1	1636	88
1	1646	89
1	1659	90
1	1670	91
1	1684	92
1	1694	93
1	1700	94
1	1706	95
1	1712	96
1	1722	97
1	1734	98
1	1740	99
1	1738	100
1	1733	101
1	1723	102
1	1710	103
1	1699	104
1	1697	105
1	1703	106
1	1707	107
1	1706	108
1	1703	109
1	1701	110
1	1699	111
1	1705	112
1	1713	113
1	1719	114
1	1718	115
1	1711	116
1	1699	117
1	1688	118
1	1685	119
1	1672	120
1	1656	121
1	1634	122
1	1606	123
1	1566	124
1	1529	125
1	1500	126
1	1468	127
1	1436	128
1	1398	129
1	1357	130
1	1319	131
1	1293	132
1	1274	133
1	1260	134
1	1241	135
1	1216	136
1	1196	137
1	1176	138
1	1165	139
1	2037	160
1	2050	161
1	2052	162
1	2042	163
1	2034	164
1	2018	165
1	2001	166
1	1982	167
1	1961	168
1	1944	169
1	1922	170
1	1909	171
1	1895	172
1	1869	173
1	1843	174
1	1816	175
1	1786	176
1	1764	177
1	1736	178
1	1706	179
1	1168	140
1	1179	141
1	1197	142
1	1215	143
1	1237	144
1	1274	145
1	1323	146
1	1381	147
1	1446	148
1	1518	149
1	1592	150
1	1664	151
1	1734	152
1	1796	153
1	1856	154
1	1903	155
1	1944	156
1	1974	157
1	2000	158
1	2018	159
1	1671	180
1	1634	181
1	1600	182
1	1571	183
1	1556	184
1	1561	185
1	1582	186
1	1607	187
1	1633	188
1	1648	189
1	1674	190
1	1700	191
1	1719	192
1	1728	193
1	1730	194
1	1726	195
1	1727	196
1	1737	197
1	1751	198
1	1773	199
1	1788	200
1	1791	201
1	1782	202
1	1767	203
1	1743	204
1	1716	205
1	1698	206
1	1680	207
1	1662	208
1	1660	209
1	1660	210
1	1660	211
1	1662	212
1	1664	213
1	1670	214
1	1679	215
1	1687	216
1	1697	217
1	1704	218
1	1702	219
1	1700	220
1	1698	221
1	1690	222
1	1678	223
1	1680	224
1	1682	225
1	1688	226
1	1706	227
1	1711	228
1	1711	229
1	1713	230
1	1720	231
1	1724	232
1	1724	233
1	1726	234
1	1726	235
1	1724	236
1	1716	237
1	1715	238
1	1718	239
1	1685	260
1	1677	261
1	1669	262
1	1657	263
1	1636	264
1	1626	265
1	1623	266
1	1632	267
1	1646	268
1	1657	269
1	1665	270
1	1671	271
1	1675	272
1	1678	273
1	1686	274
1	1698	275
1	1705	276
1	1710	277
1	1703	278
1	1688	279
1	1721	240
1	1718	241
1	1707	242
1	1692	243
1	1672	244
1	1655	245
1	1641	246
1	1634	247
1	1632	248
1	1621	249
1	1620	250
1	1619	251
1	1625	252
1	1637	253
1	1656	254
1	1662	255
1	1678	256
1	1686	257
1	1688	258
1	1688	259
1	1677	280
1	1665	281
1	1654	282
1	1639	283
1	1634	284
1	1639	285
1	1652	286
1	1670	287
1	1687	288
1	1704	289
1	1710	290
1	1710	291
1	1709	292
1	1703	293
1	1684	294
1	1665	295
1	1657	296
1	1652	297
1	1650	298
1	1651	299
1	1651	300
1	1647	301
1	1643	302
1	1635	303
1	1628	304
1	1612	305
1	1610	306
1	1611	307
1	1612	308
1	1608	309
1	1611	310
1	1620	311
1	1625	312
1	1634	313
1	1651	314
1	1661	315
1	1664	316
1	1670	317
1	1675	318
1	1682	319
1	1678	320
1	1668	321
1	1654	322
1	1643	323
1	1631	324
1	1620	325
1	1611	326
1	1616	327
1	1623	328
1	1629	329
1	1632	330
1	1628	331
1	1632	332
1	1625	333
1	1620	334
1	1621	335
1	1629	336
1	1637	337
1	1641	338
1	1634	339
1	1628	360
1	1618	361
1	1606	362
1	1587	363
1	1575	364
1	1559	365
1	1544	366
1	1532	367
1	1529	368
1	1530	369
1	1536	370
1	1543	371
1	1542	372
1	1538	373
1	1530	374
1	1536	375
1	1547	376
1	1565	377
1	1585	378
1	1609	379
1	1621	360
1	1634	361
1	1643	362
1	1643	363
1	1636	364
1	1621	365
1	1602	366
1	1581	367
1	1557	368
1	1532	369
1	1523	370
1	1515	371
1	1512	372
1	1511	373
1	1520	374
1	1529	375
1	1547	376
1	1571	377
1	1589	378
1	1603	379
1	1607	380
1	1607	381
1	1603	382
1	1594	383
1	1577	384
1	1562	385
1	1553	386
1	1542	387
1	1537	388
1	1531	389
1	1528	390
1	1529	391
1	1530	392
1	1532	393
1	1533	394
1	1530	395
1	1529	396
1	1532	397
1	1542	398
1	1547	399
1	1556	400
1	1559	401
1	1555	402
1	1553	403
1	1552	404
1	1546	405
1	1545	406
1	1546	407
1	1543	408
1	1539	409
1	1529	410
1	1513	411
1	1502	412
1	1498	413
1	1501	414
1	1517	415
1	1542	416
1	1566	417
1	1589	418
1	1615	419
1	1634	420
1	1642	421
1	1642	422
1	1633	423
1	1613	424
1	1605	425
1	1592	426
1	1584	427
1	1579	428
1	1567	429
1	1561	430
1	1557	431
1	1554	432
1	1546	433
1	1543	434
1	1539	435
1	1550	436
1	1573	437
1	1598	438
1	1634	439
1	1669	440
1	1698	441
1	1715	442
1	1722	443
1	1712	444
1	1708	445
1	1699	446
1	1687	447
1	1672	448
1	1667	449
1	1660	450
1	1660	451
1	1659	452
1	1659	453
1	1657	454
1	1660	455
1	1669	456
1	1683	457
1	1695	458
1	1694	459
1	1700	460
1	1703	461
1	1699	462
1	1691	463
1	1687	464
1	1679	465
1	1677	466
1	1681	467
1	1686	468
1	1692	469
1	1691	470
1	1691	471
1	1695	472
1	1699	473
1	1706	474
1	1716	475
1	1730	476
1	1739	477
1	1744	478
1	1751	479
1	1753	480
1	1752	481
1	1751	482
1	1743	483
1	1728	484
1	1708	485
1	1690	486
1	1677	487
1	1669	488
1	1660	489
1	1664	490
1	1675	491
1	1690	492
1	1710	493
1	1731	494
1	1743	495
1	1757	496
1	1766	497
1	1772	498
1	1769	499
1	1766	500
1	1762	501
1	1760	502
1	1762	503
1	1759	504
1	1762	505
1	1767	506
1	1774	507
1	1768	508
1	1764	509
1	1755	510
1	1751	511
1	1750	512
1	1752	513
1	1762	514
1	1764	515
1	1759	516
1	1748	517
1	1737	518
1	1724	519
1	1725	520
1	1723	521
1	1715	522
1	1709	523
1	1710	524
1	1705	525
1	1723	526
1	1730	527
1	1743	528
1	1746	529
1	1749	530
1	1749	531
1	1748	532
1	1742	533
1	1727	534
1	1717	535
1	1710	536
1	1697	537
1	1692	538
1	1695	539
1	1695	540
1	1705	541
1	1710	542
1	1710	543
1	1711	544
1	1712	545
1	1715	546
1	1718	547
1	1721	548
1	1717	549
1	1715	550
1	1717	551
1	1724	552
1	1737	553
1	1747	554
1	1751	555
1	1760	556
1	1766	557
1	1768	558
1	1769	559
1	1760	560
1	1740	561
1	1719	562
1	1701	563
1	1683	564
1	1669	565
1	1665	566
1	1673	567
1	1675	568
1	1683	569
1	1685	570
1	1685	571
1	1688	572
1	1690	573
1	1697	574
1	1710	575
1	1734	576
1	1751	577
1	1764	578
1	1769	579
1	1759	600
1	1762	601
1	1764	602
1	1761	603
1	1751	604
1	1738	605
1	1728	606
1	1723	607
1	1714	608
1	1703	609
1	1691	610
1	1680	611
1	1667	612
1	1660	613
1	1657	614
1	1651	615
1	1647	616
1	1636	617
1	1634	618
1	1641	619
1	1772	580
1	1764	581
1	1751	582
1	1737	583
1	1726	584
1	1715	585
1	1706	586
1	1698	587
1	1689	588
1	1690	589
1	1693	590
1	1698	591
1	1703	592
1	1712	593
1	1711	594
1	1713	595
1	1723	596
1	1734	597
1	1740	598
1	1755	599
1	1743	640
1	1729	641
1	1710	642
1	1693	643
1	1688	644
1	1686	645
1	1686	646
1	1688	647
1	1693	648
1	1698	649
1	1697	650
1	1689	651
1	1692	652
1	1701	653
1	1710	654
1	1720	655
1	1734	656
1	1748	657
1	1763	658
1	1778	659
1	1660	620
1	1686	621
1	1710	622
1	1731	623
1	1752	624
1	1776	625
1	1791	626
1	1811	627
1	1813	628
1	1801	629
1	1791	630
1	1783	631
1	1782	632
1	1775	633
1	1767	634
1	1764	635
1	1763	636
1	1760	637
1	1760	638
1	1751	639
1	1782	660
1	1777	661
1	1764	662
1	1754	663
1	1743	664
1	1738	665
1	1742	666
1	1751	667
1	1755	668
1	1749	669
1	1749	670
1	1744	671
1	1733	672
1	1718	673
1	1712	674
1	1701	675
1	1699	676
1	1701	677
1	1707	678
1	1703	679
1	1697	680
1	1691	681
1	1688	682
1	1690	683
1	1690	684
1	1699	685
1	1708	686
1	1720	687
1	1731	688
1	1741	689
1	1739	690
1	1733	691
1	1723	692
1	1712	693
1	1708	694
1	1701	695
1	1703	696
1	1707	697
1	1710	698
1	1705	699
1	1710	700
1	1715	701
1	1724	702
1	1728	703
1	1733	704
1	1728	705
1	1728	706
1	1734	707
1	1742	708
1	1762	709
1	1788	710
1	1812	711
1	1827	712
1	1836	713
1	1831	714
1	1826	715
1	1816	716
1	1791	717
1	1773	718
1	1764	719
1	1747	720
1	1728	721
1	1711	722
1	1697	723
1	1681	724
1	1670	725
1	1672	726
1	1686	727
1	1710	728
1	1737	729
1	1759	730
1	1770	731
1	1769	732
1	1764	733
1	1751	734
1	1737	735
1	1727	736
1	1731	737
1	1728	738
1	1721	739
1	1790	760
1	1780	761
1	1769	762
1	1759	763
1	1749	764
1	1736	765
1	1721	766
1	1710	767
1	1697	768
1	1686	769
1	1673	770
1	1665	771
1	1653	772
1	1638	773
1	1631	774
1	1623	775
1	1628	776
1	1636	777
1	1657	778
1	1686	779
1	1717	740
1	1722	741
1	1725	742
1	1731	743
1	1724	744
1	1724	745
1	1722	746
1	1724	747
1	1728	748
1	1737	749
1	1731	750
1	1730	751
1	1729	752
1	1736	753
1	1747	754
1	1764	755
1	1782	756
1	1791	757
1	1796	758
1	1793	759
1	1711	780
1	1736	781
1	1751	782
1	1764	783
1	1765	784
1	1769	785
1	1769	786
1	1765	787
1	1763	788
1	1744	789
1	1738	790
1	1733	791
1	1727	792
1	1728	793
1	1739	794
1	1752	795
1	1765	796
1	1777	797
1	1782	798
1	1786	799
1	1791	800
1	1792	801
1	1790	802
1	1785	803
1	1769	804
1	1764	805
1	1760	806
1	1751	807
1	1736	808
1	1721	809
1	1703	810
1	1688	811
1	1683	812
1	1687	813
1	1695	814
1	1712	815
1	1738	816
1	1764	817
1	1780	818
1	1785	819
1	1780	820
1	1769	821
1	1752	822
1	1730	823
1	1719	824
1	1709	825
1	1697	826
1	1693	827
1	1682	828
1	1683	829
1	1690	830
1	1703	831
1	1713	832
1	1718	833
1	1727	834
1	1733	835
1	1738	836
1	1740	837
1	1746	838
1	1751	839
1	1749	840
1	1746	841
1	1738	842
1	1723	843
1	1703	844
1	1679	845
1	1656	846
1	1641	847
1	1634	848
1	1634	849
1	1647	850
1	1661	851
1	1679	852
1	1689	853
1	1700	854
1	1702	855
1	1701	856
1	1705	857
1	1712	858
1	1724	859
1	1738	860
1	1746	861
1	1746	862
1	1738	863
1	1716	864
1	1697	865
1	1675	866
1	1657	867
1	1637	868
1	1632	869
1	1625	870
1	1629	871
1	1636	872
1	1646	873
1	1647	874
1	1644	875
1	1639	876
1	1643	877
1	1649	878
1	1652	879
1	1660	880
1	1662	881
1	1665	882
1	1661	883
1	1661	884
1	1652	885
1	1641	886
1	1628	887
1	1607	888
1	1593	889
1	1582	890
1	1580	891
1	1581	892
1	1592	893
1	1602	894
1	1623	895
1	1646	896
1	1668	897
1	1694	898
1	1720	899
1	1737	900
1	1744	901
1	1746	902
1	1743	903
1	1733	904
1	1720	905
1	1712	906
1	1707	907
1	1706	908
1	1693	909
1	1685	910
1	1671	911
1	1660	912
1	1648	913
1	1643	914
1	1631	915
1	1618	916
1	1607	917
1	1600	918
1	1602	919
1	1611	920
1	1634	921
1	1655	922
1	1680	923
1	1699	924
1	1723	925
1	1746	926
1	1769	927
1	1791	928
1	1809	929
1	1815	930
1	1801	931
1	1791	932
1	1767	933
1	1750	934
1	1733	935
1	1718	936
1	1708	937
1	1699	938
1	1690	939
1	1742	960
1	1751	961
1	1754	962
1	1758	963
1	1760	964
1	1754	965
1	1744	966
1	1737	967
1	1728	968
1	1716	969
1	1716	970
1	1719	971
1	1728	972
1	1738	973
1	1751	974
1	1755	975
1	1759	976
1	1764	977
1	1778	978
1	1791	979
1	1695	940
1	1701	941
1	1708	942
1	1711	943
1	1719	944
1	1726	945
1	1738	946
1	1750	947
1	1755	948
1	1753	949
1	1752	950
1	1752	951
1	1751	952
1	1751	953
1	1741	954
1	1739	955
1	1737	956
1	1733	957
1	1728	958
1	1738	959
1	1800	980
1	1808	981
1	1802	982
1	1793	983
1	1773	984
1	1753	985
1	1734	986
1	1712	987
1	1701	988
1	1706	989
1	1710	990
1	1715	991
1	1717	992
1	1713	993
1	1703	994
1	1688	995
1	1670	996
1	1643	997
1	1607	998
1	1556	999
1	1505	1000
1	1451	1001
1	1402	1002
1	1355	1003
1	1315	1004
1	1271	1005
1	1231	1006
1	1188	1007
1	1148	1008
1	1118	1009
1	1103	1010
1	1103	1011
1	1113	1012
1	1139	1013
1	1170	1014
1	1211	1015
1	1256	1016
1	1317	1017
1	1391	1018
1	1475	1019
1	1556	1020
1	1620	1021
1	1676	1022
1	1736	1023
1	1766	1024
1	1809	1025
1	1845	1026
1	1879	1027
1	1914	1028
1	1948	1029
1	1975	1030
1	2000	1031
1	2017	1032
1	2027	1033
1	2034	1034
1	2039	1035
1	2049	1036
1	2053	1037
1	2045	1038
1	2025	1039
1	1701	1060
1	1696	1061
1	1686	1062
1	1681	1063
1	1683	1064
1	1686	1065
1	1695	1066
1	1701	1067
1	1710	1068
1	1716	1069
1	1733	1070
1	1744	1071
1	1751	1072
1	1757	1073
1	1755	1074
1	1760	1075
1	1764	1076
1	1768	1077
1	1765	1078
1	1764	1079
1	1755	1080
1	1748	1081
1	1742	1082
1	1734	1083
1	1716	1084
1	1706	1085
1	1695	1086
1	1696	1087
1	1697	1088
1	1695	1089
1	1697	1090
1	1701	1091
1	1702	1092
1	1703	1093
1	1706	1094
1	1706	1095
1	1706	1096
1	1711	1097
1	1721	1098
1	1733	1099
1	1998	1040
1	1963	1041
1	1935	1042
1	1913	1043
1	1880	1044
1	1850	1045
1	1816	1046
1	1782	1047
1	1757	1048
1	1744	1049
1	1728	1050
1	1719	1051
1	1719	1052
1	1716	1053
1	1712	1054
1	1712	1055
1	1712	1056
1	1711	1057
1	1710	1058
1	1705	1059
1	1740	1100
1	1738	1101
1	1734	1102
1	1726	1103
1	1712	1104
1	1707	1105
1	1706	1106
1	1710	1107
1	1712	1108
1	1701	1109
1	1688	1110
1	1674	1111
1	1657	1112
1	1646	1113
1	1641	1114
1	1636	1115
1	1636	1116
1	1649	1117
1	1669	1118
1	1686	1119
1	1706	1120
1	1713	1121
1	1712	1122
1	1699	1123
1	1691	1124
1	1672	1125
1	1662	1126
1	1651	1127
1	1637	1128
1	1631	1129
1	1626	1130
1	1618	1131
1	1610	1132
1	1605	1133
1	1598	1134
1	1593	1135
1	1602	1136
1	1623	1137
1	1655	1138
1	1685	1139
1	1710	1140
1	1738	1141
1	1764	1142
1	1781	1143
1	1790	1144
1	1782	1145
1	1764	1146
1	1751	1147
1	1738	1148
1	1723	1149
1	1710	1150
1	1688	1151
1	1672	1152
1	1660	1153
1	1660	1154
1	1659	1155
1	1659	1156
1	1660	1157
1	1665	1158
1	1674	1159
1	1677	1160
1	1672	1161
1	1669	1162
1	1661	1163
1	1638	1164
1	1631	1165
1	1628	1166
1	1629	1167
1	1635	1168
1	1655	1169
1	1677	1170
1	1699	1171
1	1712	1172
1	1715	1173
1	1713	1174
1	1706	1175
1	1691	1176
1	1682	1177
1	1678	1178
1	1670	1179
1	1547	1200
1	1551	1201
1	1555	1202
1	1562	1203
1	1570	1204
1	1584	1205
1	1605	1206
1	1621	1207
1	1634	1208
1	1638	1209
1	1634	1210
1	1625	1211
1	1613	1212
1	1619	1213
1	1625	1214
1	1634	1215
1	1645	1216
1	1657	1217
1	1661	1218
1	1660	1219
1	1672	1180
1	1674	1181
1	1668	1182
1	1660	1183
1	1644	1184
1	1626	1185
1	1611	1186
1	1593	1187
1	1572	1188
1	1555	1189
1	1549	1190
1	1546	1191
1	1545	1192
1	1546	1193
1	1539	1194
1	1539	1195
1	1539	1196
1	1537	1197
1	1542	1198
1	1545	1199
1	1652	1220
1	1638	1221
1	1626	1222
1	1606	1223
1	1581	1224
1	1562	1225
1	1553	1226
1	1541	1227
1	1530	1228
1	1529	1229
1	1524	1230
1	1519	1231
1	1529	1232
1	1546	1233
1	1561	1234
1	1579	1235
1	1583	1236
1	1587	1237
1	1589	1238
1	1589	1239
1	1589	1240
1	1582	1241
1	1571	1242
1	1556	1243
1	1544	1244
1	1529	1245
1	1515	1246
1	1511	1247
1	1508	1248
1	1506	1249
1	1510	1250
1	1517	1251
1	1528	1252
1	1537	1253
1	1542	1254
1	1552	1255
1	1566	1256
1	1585	1257
1	1607	1258
1	1627	1259
1	1634	1260
1	1634	1261
1	1625	1262
1	1611	1263
1	1598	1264
1	1581	1265
1	1561	1266
1	1543	1267
1	1531	1268
1	1525	1269
1	1528	1270
1	1529	1271
1	1529	1272
1	1532	1273
1	1533	1274
1	1533	1275
1	1537	1276
1	1542	1277
1	1553	1278
1	1566	1279
1	1569	1280
1	1567	1281
1	1559	1282
1	1551	1283
1	1530	1284
1	1517	1285
1	1513	1286
1	1517	1287
1	1530	1288
1	1541	1289
1	1549	1290
1	1555	1291
1	1561	1292
1	1573	1293
1	1583	1294
1	1590	1295
1	1595	1296
1	1597	1297
1	1598	1298
1	1587	1299
1	1581	1300
1	1574	1301
1	1564	1302
1	1560	1303
1	1555	1304
1	1547	1305
1	1543	1306
1	1552	1307
1	1561	1308
1	1580	1309
1	1600	1310
1	1617	1311
1	1633	1312
1	1639	1313
1	1638	1314
1	1643	1315
1	1646	1316
1	1645	1317
1	1650	1318
1	1651	1319
1	1655	1320
1	1656	1321
1	1672	1322
1	1683	1323
1	1675	1324
1	1667	1325
1	1662	1326
1	1660	1327
1	1657	1328
1	1659	1329
1	1661	1330
1	1667	1331
1	1674	1332
1	1684	1333
1	1698	1334
1	1708	1335
1	1711	1336
1	1712	1337
1	1711	1338
1	1710	1339
1	1707	1340
1	1701	1341
1	1694	1342
1	1686	1343
1	1668	1344
1	1662	1345
1	1666	1346
1	1675	1347
1	1686	1348
1	1701	1349
1	1716	1350
1	1730	1351
1	1739	1352
1	1742	1353
1	1740	1354
1	1737	1355
1	1733	1356
1	1729	1357
1	1731	1358
1	1726	1359
1	1725	1360
1	1719	1361
1	1719	1362
1	1726	1363
1	1720	1364
1	1712	1365
1	1710	1366
1	1704	1367
1	1710	1368
1	1713	1369
1	1722	1370
1	1731	1371
1	1738	1372
1	1739	1373
1	1738	1374
1	1739	1375
1	1738	1376
1	1733	1377
1	1726	1378
1	1712	1379
1	1750	1400
1	1733	1401
1	1718	1402
1	1708	1403
1	1690	1404
1	1675	1405
1	1665	1406
1	1665	1407
1	1682	1408
1	1687	1409
1	1697	1410
1	1711	1411
1	1726	1412
1	1744	1413
1	1757	1414
1	1762	1415
1	1760	1416
1	1754	1417
1	1751	1418
1	1749	1419
1	1698	1400
1	1685	1401
1	1665	1402
1	1656	1403
1	1647	1404
1	1642	1405
1	1642	1406
1	1645	1407
1	1644	1408
1	1635	1409
1	1638	1410
1	1652	1411
1	1665	1412
1	1688	1413
1	1703	1414
1	1716	1415
1	1735	1416
1	1751	1417
1	1760	1418
1	1757	1419
1	1744	1420
1	1737	1421
1	1724	1422
1	1707	1423
1	1693	1424
1	1665	1425
1	1657	1426
1	1643	1427
1	1636	1428
1	1636	1429
1	1639	1430
1	1651	1431
1	1660	1432
1	1673	1433
1	1687	1434
1	1700	1435
1	1710	1436
1	1715	1437
1	1722	1438
1	1723	1439
1	1715	1440
1	1704	1441
1	1697	1442
1	1679	1443
1	1660	1444
1	1647	1445
1	1641	1446
1	1638	1447
1	1639	1448
1	1644	1449
1	1656	1450
1	1662	1451
1	1671	1452
1	1681	1453
1	1697	1454
1	1708	1455
1	1716	1456
1	1720	1457
1	1724	1458
1	1723	1459
1	1671	1480
1	1661	1481
1	1647	1482
1	1636	1483
1	1631	1484
1	1626	1485
1	1634	1486
1	1642	1487
1	1656	1488
1	1674	1489
1	1697	1490
1	1712	1491
1	1723	1492
1	1729	1493
1	1727	1494
1	1729	1495
1	1734	1496
1	1733	1497
1	1733	1498
1	1717	1499
1	1721	1460
1	1713	1461
1	1703	1462
1	1692	1463
1	1674	1464
1	1661	1465
1	1657	1466
1	1652	1467
1	1660	1468
1	1665	1469
1	1667	1470
1	1665	1471
1	1665	1472
1	1669	1473
1	1670	1474
1	1669	1475
1	1668	1476
1	1671	1477
1	1674	1478
1	1672	1479
1	1709	1500
1	1698	1501
1	1686	1502
1	1675	1503
1	1665	1504
1	1656	1505
1	1652	1506
1	1660	1507
1	1674	1508
1	1678	1509
1	1690	1510
1	1705	1511
1	1718	1512
1	1734	1513
1	1737	1514
1	1730	1515
1	1724	1516
1	1722	1517
1	1721	1518
1	1715	1519
1	1707	1520
1	1689	1521
1	1676	1522
1	1661	1523
1	1651	1524
1	1641	1525
1	1638	1526
1	1645	1527
1	1650	1528
1	1657	1529
1	1665	1530
1	1670	1531
1	1677	1532
1	1677	1533
1	1675	1534
1	1670	1535
1	1665	1536
1	1662	1537
1	1665	1538
1	1661	1539
1	1667	1540
1	1667	1541
1	1664	1542
1	1661	1543
1	1661	1544
1	1659	1545
1	1658	1546
1	1661	1547
1	1665	1548
1	1670	1549
1	1677	1550
1	1685	1551
1	1688	1552
1	1688	1553
1	1674	1554
1	1661	1555
1	1656	1556
1	1647	1557
1	1647	1558
1	1643	1559
1	1644	1560
1	1648	1561
1	1656	1562
1	1658	1563
1	1665	1564
1	1686	1565
1	1712	1566
1	1737	1567
1	1752	1568
1	1759	1569
1	1769	1570
1	1773	1571
1	1773	1572
1	1773	1573
1	1761	1574
1	1739	1575
1	1721	1576
1	1705	1577
1	1692	1578
1	1683	1579
1	1675	1580
1	1674	1581
1	1674	1582
1	1671	1583
1	1660	1584
1	1658	1585
1	1659	1586
1	1656	1587
1	1658	1588
1	1654	1589
1	1657	1590
1	1661	1591
1	1667	1592
1	1674	1593
1	1674	1594
1	1675	1595
1	1678	1596
1	1675	1597
1	1678	1598
1	1678	1599
1	1686	1600
1	1692	1601
1	1692	1602
1	1697	1603
1	1699	1604
1	1708	1605
1	1718	1606
1	1731	1607
1	1742	1608
1	1746	1609
1	1742	1610
1	1733	1611
1	1726	1612
1	1717	1613
1	1705	1614
1	1699	1615
1	1693	1616
1	1686	1617
1	1693	1618
1	1696	1619
1	1694	1620
1	1680	1621
1	1665	1622
1	1652	1623
1	1634	1624
1	1620	1625
1	1600	1626
1	1583	1627
1	1577	1628
1	1580	1629
1	1585	1630
1	1600	1631
1	1618	1632
1	1639	1633
1	1665	1634
1	1686	1635
1	1705	1636
1	1727	1637
1	1741	1638
1	1749	1639
1	1751	1640
1	1754	1641
1	1749	1642
1	1738	1643
1	1716	1644
1	1699	1645
1	1685	1646
1	1662	1647
1	1638	1648
1	1625	1649
1	1625	1650
1	1634	1651
1	1644	1652
1	1652	1653
1	1660	1654
1	1670	1655
1	1683	1656
1	1696	1657
1	1712	1658
1	1718	1659
1	1733	1660
1	1736	1661
1	1733	1662
1	1728	1663
1	1720	1664
1	1723	1665
1	1726	1666
1	1733	1667
1	1739	1668
1	1747	1669
1	1751	1670
1	1752	1671
1	1750	1672
1	1744	1673
1	1734	1674
1	1723	1675
1	1710	1676
1	1697	1677
1	1700	1678
1	1698	1679
1	1698	1680
1	1695	1681
1	1683	1682
1	1669	1683
1	1652	1684
1	1639	1685
1	1634	1686
1	1634	1687
1	1635	1688
1	1633	1689
1	1634	1690
1	1634	1691
1	1634	1692
1	1638	1693
1	1636	1694
1	1636	1695
1	1646	1696
1	1660	1697
1	1683	1698
1	1705	1699
1	1728	1700
1	1746	1701
1	1759	1702
1	1763	1703
1	1755	1704
1	1746	1705
1	1731	1706
1	1712	1707
1	1697	1708
1	1670	1709
1	1651	1710
1	1641	1711
1	1634	1712
1	1625	1713
1	1619	1714
1	1618	1715
1	1620	1716
1	1629	1717
1	1638	1718
1	1657	1719
1	1682	1720
1	1698	1721
1	1706	1722
1	1711	1723
1	1725	1724
1	1729	1725
1	1726	1726
1	1737	1727
1	1730	1728
1	1712	1729
1	1699	1730
1	1688	1731
1	1680	1732
1	1665	1733
1	1656	1734
1	1646	1735
1	1641	1736
1	1635	1737
1	1634	1738
1	1634	1739
1	1634	1740
1	1634	1741
1	1644	1742
1	1647	1743
1	1654	1744
1	1658	1745
1	1661	1746
1	1662	1747
1	1664	1748
1	1664	1749
1	1669	1750
1	1669	1751
1	1664	1752
1	1662	1753
1	1663	1754
1	1660	1755
1	1662	1756
1	1665	1757
1	1664	1758
1	1665	1759
1	1575	1780
1	1581	1781
1	1580	1782
1	1579	1783
1	1572	1784
1	1574	1785
1	1580	1786
1	1586	1787
1	1593	1788
1	1595	1789
1	1593	1790
1	1594	1791
1	1598	1792
1	1606	1793
1	1607	1794
1	1609	1795
1	1609	1796
1	1607	1797
1	1619	1798
1	1628	1799
1	1669	1760
1	1672	1761
1	1674	1762
1	1670	1763
1	1660	1764
1	1651	1765
1	1644	1766
1	1639	1767
1	1639	1768
1	1628	1769
1	1609	1770
1	1590	1771
1	1576	1772
1	1557	1773
1	1543	1774
1	1529	1775
1	1528	1776
1	1535	1777
1	1552	1778
1	1563	1779
1	1634	1800
1	1636	1801
1	1637	1802
1	1642	1803
1	1647	1804
1	1647	1805
1	1647	1806
1	1644	1807
1	1636	1808
1	1626	1809
1	1620	1810
1	1616	1811
1	1616	1812
1	1623	1813
1	1629	1814
1	1643	1815
1	1668	1816
1	1695	1817
1	1718	1818
1	1735	1819
1	1738	1820
1	1728	1821
1	1713	1822
1	1691	1823
1	1670	1824
1	1658	1825
1	1649	1826
1	1644	1827
1	1634	1828
1	1632	1829
1	1631	1830
1	1634	1831
1	1647	1832
1	1660	1833
1	1670	1834
1	1677	1835
1	1685	1836
1	1688	1837
1	1697	1838
1	1697	1839
1	1700	1840
1	1705	1841
1	1697	1842
1	1683	1843
1	1661	1844
1	1634	1845
1	1606	1846
1	1593	1847
1	1594	1848
1	1600	1849
1	1610	1850
1	1634	1851
1	1657	1852
1	1683	1853
1	1691	1854
1	1707	1855
1	1720	1856
1	1730	1857
1	1744	1858
1	1749	1859
1	1376	1900
1	1338	1901
1	1295	1902
1	1259	1903
1	1220	1904
1	1188	1905
1	1164	1906
1	1145	1907
1	1133	1908
1	1124	1909
1	1123	1910
1	1137	1911
1	1165	1912
1	1193	1913
1	1215	1914
1	1238	1915
1	1274	1916
1	1319	1917
1	1377	1918
1	1443	1919
1	1688	1880
1	1697	1881
1	1701	1882
1	1701	1883
1	1688	1884
1	1672	1885
1	1665	1886
1	1664	1887
1	1674	1888
1	1680	1889
1	1682	1890
1	1677	1891
1	1658	1892
1	1631	1893
1	1598	1894
1	1564	1895
1	1531	1896
1	1499	1897
1	1464	1898
1	1422	1899
1	1747	1860
1	1740	1861
1	1729	1862
1	1711	1863
1	1696	1864
1	1687	1865
1	1686	1866
1	1688	1867
1	1693	1868
1	1693	1869
1	1697	1870
1	1699	1871
1	1697	1872
1	1696	1873
1	1688	1874
1	1685	1875
1	1682	1876
1	1676	1877
1	1680	1878
1	1685	1879
1	1505	1920
1	1553	1921
1	1607	1922
1	1650	1923
1	1678	1924
1	1712	1925
1	1751	1926
1	1791	1927
1	1839	1928
1	1873	1929
1	1916	1930
1	1949	1931
1	1976	1932
1	1996	1933
1	2004	1934
1	1999	1935
1	1982	1936
1	1965	1937
1	1953	1938
1	1935	1939
1	1920	1940
1	1898	1941
1	1873	1942
1	1851	1943
1	1820	1944
1	1800	1945
1	1787	1946
1	1765	1947
1	1749	1948
1	1737	1949
1	1728	1950
1	1716	1951
1	1701	1952
1	1691	1953
1	1682	1954
1	1670	1955
1	1664	1956
1	1661	1957
1	1661	1958
1	1657	1959
1	1657	1960
1	1655	1961
1	1648	1962
1	1647	1963
1	1635	1964
1	1637	1965
1	1649	1966
1	1664	1967
1	1686	1968
1	1697	1969
1	1701	1970
1	1702	1971
1	1705	1972
1	1714	1973
1	1715	1974
1	1713	1975
1	1712	1976
1	1701	1977
1	1691	1978
1	1674	1979
1	1659	1980
1	1643	1981
1	1631	1982
1	1613	1983
1	1605	1984
1	1599	1985
1	1605	1986
1	1610	1987
1	1618	1988
1	1620	1989
1	1625	1990
1	1629	1991
1	1629	1992
1	1641	1993
1	1651	1994
1	1659	1995
1	1673	1996
1	1686	1997
1	1697	1998
1	1701	1999
1	1701	2000
1	1698	2001
1	1692	2002
1	1686	2003
1	1671	2004
1	1659	2005
1	1646	2006
1	1635	2007
1	1634	2008
1	1626	2009
1	1616	2010
1	1607	2011
1	1601	2012
1	1599	2013
1	1606	2014
1	1609	2015
1	1620	2016
1	1633	2017
1	1646	2018
1	1649	2019
1	1658	2020
1	1660	2021
1	1657	2022
1	1647	2023
1	1635	2024
1	1616	2025
1	1610	2026
1	1606	2027
1	1611	2028
1	1608	2029
1	1612	2030
1	1621	2031
1	1626	2032
1	1641	2033
1	1661	2034
1	1681	2035
1	1695	2036
1	1710	2037
1	1713	2038
1	1705	2039
1	1686	2040
1	1672	2041
1	1664	2042
1	1648	2043
1	1631	2044
1	1612	2045
1	1600	2046
1	1587	2047
1	1579	2048
1	1569	2049
1	1569	2050
1	1577	2051
1	1584	2052
1	1591	2053
1	1600	2054
1	1603	2055
1	1607	2056
1	1610	2057
1	1613	2058
1	1620	2059
1	1623	2060
1	1625	2061
1	1623	2062
1	1622	2063
1	1615	2064
1	1612	2065
1	1611	2066
1	1620	2067
1	1634	2068
1	1642	2069
1	1643	2070
1	1638	2071
1	1637	2072
1	1635	2073
1	1634	2074
1	1634	2075
1	1634	2076
1	1634	2077
1	1631	2078
1	1616	2079
1	1607	2080
1	1595	2081
1	1581	2082
1	1571	2083
1	1555	2084
1	1542	2085
1	1538	2086
1	1539	2087
1	1550	2088
1	1555	2089
1	1558	2090
1	1556	2091
1	1556	2092
1	1555	2093
1	1555	2094
1	1564	2095
1	1569	2096
1	1568	2097
1	1576	2098
1	1585	2099
1	1602	2100
1	1617	2101
1	1625	2102
1	1629	2103
1	1620	2104
1	1616	2105
1	1609	2106
1	1607	2107
1	1605	2108
1	1592	2109
1	1582	2110
1	1571	2111
1	1565	2112
1	1560	2113
1	1555	2114
1	1548	2115
1	1544	2116
1	1539	2117
1	1534	2118
1	1536	2119
1	1543	2120
1	1544	2121
1	1552	2122
1	1551	2123
1	1554	2124
1	1555	2125
1	1554	2126
1	1554	2127
1	1552	2128
1	1555	2129
1	1557	2130
1	1563	2131
1	1567	2132
1	1564	2133
1	1553	2134
1	1535	2135
1	1523	2136
1	1512	2137
1	1503	2138
1	1488	2139
1	1477	2140
1	1474	2141
1	1476	2142
1	1488	2143
1	1504	2144
1	1515	2145
1	1526	2146
1	1531	2147
1	1540	2148
1	1548	2149
1	1562	2150
1	1574	2151
1	1580	2152
1	1577	2153
1	1563	2154
1	1553	2155
1	1542	2156
1	1536	2157
1	1544	2158
1	1553	2159
1	1577	2200
1	1576	2201
1	1569	2202
1	1567	2203
1	1559	2204
1	1556	2205
1	1558	2206
1	1563	2207
1	1572	2208
1	1585	2209
1	1600	2210
1	1608	2211
1	1617	2212
1	1623	2213
1	1625	2214
1	1633	2215
1	1645	2216
1	1656	2217
1	1670	2218
1	1679	2219
1	1557	2160
1	1554	2161
1	1542	2162
1	1535	2163
1	1529	2164
1	1527	2165
1	1529	2166
1	1531	2167
1	1535	2168
1	1530	2169
1	1531	2170
1	1529	2171
1	1517	2172
1	1508	2173
1	1494	2174
1	1482	2175
1	1476	2176
1	1463	2177
1	1458	2178
1	1453	2179
1	1456	2180
1	1462	2181
1	1466	2182
1	1465	2183
1	1453	2184
1	1445	2185
1	1442	2186
1	1449	2187
1	1469	2188
1	1492	2189
1	1525	2190
1	1556	2191
1	1584	2192
1	1597	2193
1	1597	2194
1	1589	2195
1	1581	2196
1	1573	2197
1	1572	2198
1	1571	2199
1	1683	2220
1	1672	2221
1	1661	2222
1	1660	2223
1	1650	2224
1	1644	2225
1	1643	2226
1	1646	2227
1	1643	2228
1	1639	2229
1	1634	2230
1	1633	2231
1	1626	2232
1	1623	2233
1	1621	2234
1	1616	2235
1	1619	2236
1	1629	2237
1	1647	2238
1	1658	2239
1	1665	2240
1	1679	2241
1	1685	2242
1	1687	2243
1	1688	2244
1	1698	2245
1	1707	2246
1	1713	2247
1	1715	2248
1	1719	2249
1	1720	2250
1	1721	2251
1	1721	2252
1	1724	2253
1	1724	2254
1	1726	2255
1	1726	2256
1	1731	2257
1	1737	2258
1	1734	2259
1	1729	2260
1	1726	2261
1	1724	2262
1	1731	2263
1	1731	2264
1	1726	2265
1	1721	2266
1	1721	2267
1	1726	2268
1	1728	2269
1	1725	2270
1	1721	2271
1	1717	2272
1	1715	2273
1	1701	2274
1	1684	2275
1	1660	2276
1	1638	2277
1	1633	2278
1	1631	2279
1	1634	2280
1	1643	2281
1	1651	2282
1	1661	2283
1	1669	2284
1	1674	2285
1	1677	2286
1	1679	2287
1	1685	2288
1	1686	2289
1	1691	2290
1	1701	2291
1	1713	2292
1	1734	2293
1	1746	2294
1	1755	2295
1	1763	2296
1	1763	2297
1	1753	2298
1	1735	2299
1	1710	2300
1	1684	2301
1	1661	2302
1	1642	2303
1	1618	2304
1	1607	2305
1	1608	2306
1	1630	2307
1	1664	2308
1	1700	2309
1	1735	2310
1	1764	2311
1	1791	2312
1	1819	2313
1	1841	2314
1	1852	2315
1	1856	2316
1	1850	2317
1	1839	2318
1	1810	2319
1	1671	2340
1	1680	2341
1	1696	2342
1	1700	2343
1	1700	2344
1	1704	2345
1	1705	2346
1	1707	2347
1	1707	2348
1	1698	2349
1	1697	2350
1	1694	2351
1	1699	2352
1	1709	2353
1	1727	2354
1	1737	2355
1	1739	2356
1	1744	2357
1	1747	2358
1	1744	2359
1	1774	2320
1	1741	2321
1	1715	2322
1	1690	2323
1	1679	2324
1	1660	2325
1	1649	2326
1	1638	2327
1	1634	2328
1	1634	2329
1	1638	2330
1	1647	2331
1	1660	2332
1	1669	2333
1	1670	2334
1	1669	2335
1	1665	2336
1	1660	2337
1	1660	2338
1	1665	2339
1	1740	2360
1	1733	2361
1	1715	2362
1	1695	2363
1	1665	2364
1	1647	2365
1	1639	2366
1	1636	2367
1	1645	2368
1	1647	2369
1	1652	2370
1	1659	2371
1	1662	2372
1	1672	2373
1	1674	2374
1	1670	2375
1	1659	2376
1	1647	2377
1	1633	2378
1	1609	2379
1	1600	2380
1	1605	2381
1	1616	2382
1	1634	2383
1	1637	2384
1	1641	2385
1	1652	2386
1	1670	2387
1	1688	2388
1	1710	2389
1	1728	2390
1	1744	2391
1	1755	2392
1	1762	2393
1	1751	2394
1	1738	2395
1	1728	2396
1	1718	2397
1	1718	2398
1	1715	2399
1	1711	2400
1	1700	2401
1	1688	2402
1	1677	2403
1	1662	2404
1	1652	2405
1	1645	2406
1	1642	2407
1	1639	2408
1	1638	2409
1	1647	2410
1	1660	2411
1	1668	2412
1	1677	2413
1	1682	2414
1	1688	2415
1	1701	2416
1	1715	2417
1	1731	2418
1	1739	2419
1	1746	2420
1	1738	2421
1	1726	2422
1	1712	2423
1	1703	2424
1	1688	2425
1	1681	2426
1	1674	2427
1	1674	2428
1	1682	2429
1	1685	2430
1	1687	2431
1	1694	2432
1	1713	2433
1	1729	2434
1	1733	2435
1	1737	2436
1	1740	2437
1	1747	2438
1	1741	2439
1	1738	2440
1	1738	2441
1	1733	2442
1	1720	2443
1	1713	2444
1	1701	2445
1	1685	2446
1	1674	2447
1	1669	2448
1	1672	2449
1	1675	2450
1	1681	2451
1	1687	2452
1	1700	2453
1	1701	2454
1	1707	2455
1	1707	2456
1	1706	2457
1	1713	2458
1	1715	2459
1	1717	2460
1	1715	2461
1	1712	2462
1	1703	2463
1	1687	2464
1	1672	2465
1	1658	2466
1	1647	2467
1	1641	2468
1	1636	2469
1	1647	2470
1	1660	2471
1	1675	2472
1	1694	2473
1	1705	2474
1	1716	2475
1	1737	2476
1	1751	2477
1	1760	2478
1	1763	2479
1	1757	2480
1	1751	2481
1	1740	2482
1	1726	2483
1	1703	2484
1	1687	2485
1	1675	2486
1	1670	2487
1	1674	2488
1	1677	2489
1	1677	2490
1	1672	2491
1	1664	2492
1	1659	2493
1	1660	2494
1	1669	2495
1	1680	2496
1	1695	2497
1	1713	2498
1	1731	2499
1	1751	2500
1	1765	2501
1	1767	2502
1	1764	2503
1	1746	2504
1	1730	2505
1	1718	2506
1	1710	2507
1	1707	2508
1	1708	2509
1	1707	2510
1	1703	2511
1	1701	2512
1	1698	2513
1	1688	2514
1	1688	2515
1	1687	2516
1	1693	2517
1	1708	2518
1	1713	2519
1	1712	2520
1	1703	2521
1	1691	2522
1	1679	2523
1	1656	2524
1	1639	2525
1	1625	2526
1	1612	2527
1	1607	2528
1	1600	2529
1	1598	2530
1	1598	2531
1	1607	2532
1	1613	2533
1	1623	2534
1	1621	2535
1	1619	2536
1	1620	2537
1	1631	2538
1	1636	2539
1	1755	2560
1	1746	2561
1	1730	2562
1	1710	2563
1	1686	2564
1	1661	2565
1	1652	2566
1	1651	2567
1	1658	2568
1	1667	2569
1	1674	2570
1	1674	2571
1	1674	2572
1	1677	2573
1	1677	2574
1	1686	2575
1	1691	2576
1	1696	2577
1	1703	2578
1	1703	2579
1	1648	2540
1	1667	2541
1	1686	2542
1	1700	2543
1	1705	2544
1	1707	2545
1	1708	2546
1	1706	2547
1	1708	2548
1	1712	2549
1	1710	2550
1	1711	2551
1	1712	2552
1	1712	2553
1	1716	2554
1	1732	2555
1	1744	2556
1	1756	2557
1	1767	2558
1	1764	2559
1	1705	2580
1	1701	2581
1	1699	2582
1	1697	2583
1	1697	2584
1	1692	2585
1	1688	2586
1	1693	2587
1	1704	2588
1	1713	2589
1	1728	2590
1	1737	2591
1	1737	2592
1	1739	2593
1	1728	2594
1	1712	2595
1	1704	2596
1	1701	2597
1	1695	2598
1	1688	2599
1	1684	2600
1	1681	2601
1	1683	2602
1	1685	2603
1	1682	2604
1	1679	2605
1	1678	2606
1	1677	2607
1	1683	2608
1	1686	2609
1	1689	2610
1	1694	2611
1	1701	2612
1	1710	2613
1	1719	2614
1	1727	2615
1	1737	2616
1	1743	2617
1	1751	2618
1	1751	2619
1	1746	2620
1	1737	2621
1	1719	2622
1	1701	2623
1	1691	2624
1	1670	2625
1	1659	2626
1	1646	2627
1	1637	2628
1	1635	2629
1	1634	2630
1	1634	2631
1	1634	2632
1	1635	2633
1	1635	2634
1	1638	2635
1	1645	2636
1	1649	2637
1	1660	2638
1	1664	2639
1	1750	2660
1	1751	2661
1	1744	2662
1	1728	2663
1	1695	2664
1	1661	2665
1	1631	2666
1	1594	2667
1	1571	2668
1	1553	2669
1	1541	2670
1	1530	2671
1	1530	2672
1	1538	2673
1	1555	2674
1	1581	2675
1	1602	2676
1	1619	2677
1	1633	2678
1	1633	2679
1	1674	2640
1	1679	2641
1	1686	2642
1	1686	2643
1	1689	2644
1	1691	2645
1	1688	2646
1	1687	2647
1	1687	2648
1	1686	2649
1	1694	2650
1	1703	2651
1	1712	2652
1	1712	2653
1	1719	2654
1	1719	2655
1	1718	2656
1	1719	2657
1	1724	2658
1	1738	2659
1	1635	2680
1	1643	2681
1	1647	2682
1	1649	2683
1	1646	2684
1	1634	2685
1	1629	2686
1	1625	2687
1	1621	2688
1	1618	2689
1	1616	2690
1	1619	2691
1	1623	2692
1	1627	2693
1	1622	2694
1	1629	2695
1	1641	2696
1	1655	2697
1	1670	2698
1	1679	2699
1	1690	2700
1	1699	2701
1	1695	2702
1	1680	2703
1	1663	2704
1	1649	2705
1	1636	2706
1	1629	2707
1	1623	2708
1	1611	2709
1	1607	2710
1	1611	2711
1	1624	2712
1	1643	2713
1	1656	2714
1	1672	2715
1	1686	2716
1	1696	2717
1	1701	2718
1	1712	2719
1	1723	2720
1	1724	2721
1	1729	2722
1	1728	2723
1	1715	2724
1	1702	2725
1	1692	2726
1	1683	2727
1	1677	2728
1	1674	2729
1	1670	2730
1	1675	2731
1	1690	2732
1	1716	2733
1	1742	2734
1	1767	2735
1	1787	2736
1	1803	2737
1	1818	2738
1	1814	2739
1	1803	2740
1	1793	2741
1	1785	2742
1	1775	2743
1	1763	2744
1	1746	2745
1	1731	2746
1	1723	2747
1	1713	2748
1	1711	2749
1	1712	2750
1	1717	2751
1	1726	2752
1	1737	2753
1	1737	2754
1	1739	2755
1	1741	2756
1	1738	2757
1	1738	2758
1	1736	2759
1	1738	2760
1	1741	2761
1	1749	2762
1	1750	2763
1	1746	2764
1	1740	2765
1	1738	2766
1	1738	2767
1	1739	2768
1	1733	2769
1	1726	2770
1	1720	2771
1	1713	2772
1	1712	2773
1	1708	2774
1	1712	2775
1	1719	2776
1	1727	2777
1	1733	2778
1	1741	2779
1	1451	2800
1	1410	2801
1	1361	2802
1	1319	2803
1	1265	2804
1	1215	2805
1	1179	2806
1	1162	2807
1	1150	2808
1	1142	2809
1	1143	2810
1	1160	2811
1	1188	2812
1	1230	2813
1	1279	2814
1	1331	2815
1	1384	2816
1	1449	2817
1	1519	2818
1	1580	2819
1	1753	2780
1	1760	2781
1	1755	2782
1	1749	2783
1	1735	2784
1	1733	2785
1	1737	2786
1	1738	2787
1	1737	2788
1	1721	2789
1	1704	2790
1	1686	2791
1	1665	2792
1	1643	2793
1	1618	2794
1	1593	2795
1	1574	2796
1	1556	2797
1	1536	2798
1	1495	2799
1	1635	2820
1	1679	2821
1	1728	2822
1	1787	2823
1	1832	2824
1	1875	2825
1	1922	2826
1	1963	2827
1	2000	2828
1	2022	2829
1	2031	2830
1	2037	2831
1	2034	2832
1	2029	2833
1	2029	2834
1	2026	2835
1	2017	2836
1	2006	2837
1	2000	2838
1	1985	2839
1	1965	2840
1	1943	2841
1	1909	2842
1	1875	2843
1	1845	2844
1	1822	2845
1	1795	2846
1	1777	2847
1	1764	2848
1	1755	2849
1	1754	2850
1	1755	2851
1	1755	2852
1	1755	2853
1	1751	2854
1	1742	2855
1	1733	2856
1	1723	2857
1	1715	2858
1	1705	2859
1	1697	2860
1	1688	2861
1	1685	2862
1	1688	2863
1	1691	2864
1	1692	2865
1	1697	2866
1	1705	2867
1	1713	2868
1	1724	2869
1	1733	2870
1	1738	2871
1	1747	2872
1	1753	2873
1	1750	2874
1	1749	2875
1	1746	2876
1	1742	2877
1	1746	2878
1	1739	2879
1	1737	2880
1	1729	2881
1	1723	2882
1	1716	2883
1	1711	2884
1	1697	2885
1	1686	2886
1	1686	2887
1	1699	2888
1	1712	2889
1	1719	2890
1	1725	2891
1	1729	2892
1	1739	2893
1	1743	2894
1	1744	2895
1	1744	2896
1	1742	2897
1	1740	2898
1	1736	2899
1	1730	2900
1	1724	2901
1	1712	2902
1	1699	2903
1	1678	2904
1	1665	2905
1	1660	2906
1	1661	2907
1	1677	2908
1	1688	2909
1	1705	2910
1	1718	2911
1	1724	2912
1	1721	2913
1	1715	2914
1	1711	2915
1	1712	2916
1	1716	2917
1	1728	2918
1	1737	2919
1	1772	2940
1	1752	2941
1	1736	2942
1	1710	2943
1	1686	2944
1	1660	2945
1	1643	2946
1	1631	2947
1	1626	2948
1	1621	2949
1	1625	2950
1	1624	2951
1	1619	2952
1	1616	2953
1	1618	2954
1	1618	2955
1	1621	2956
1	1629	2957
1	1641	2958
1	1652	2959
1	1749	2920
1	1759	2921
1	1762	2922
1	1764	2923
1	1764	2924
1	1747	2925
1	1740	2926
1	1733	2927
1	1729	2928
1	1726	2929
1	1725	2930
1	1726	2931
1	1727	2932
1	1733	2933
1	1738	2934
1	1742	2935
1	1755	2936
1	1767	2937
1	1780	2938
1	1783	2939
1	1686	2980
1	1670	2981
1	1648	2982
1	1634	2983
1	1616	2984
1	1606	2985
1	1599	2986
1	1599	2987
1	1602	2988
1	1612	2989
1	1634	2990
1	1660	2991
1	1683	2992
1	1701	2993
1	1712	2994
1	1726	2995
1	1733	2996
1	1737	2997
1	1742	2998
1	1733	2999
1	1667	2960
1	1676	2961
1	1683	2962
1	1687	2963
1	1686	2964
1	1687	2965
1	1692	2966
1	1703	2967
1	1724	2968
1	1737	2969
1	1744	2970
1	1751	2971
1	1751	2972
1	1751	2973
1	1747	2974
1	1738	2975
1	1730	2976
1	1721	2977
1	1715	2978
1	1701	2979
1	1729	3000
1	1729	3001
1	1729	3002
1	1725	3003
1	1721	3004
1	1712	3005
1	1704	3006
1	1701	3007
1	1698	3008
1	1685	3009
1	1675	3010
1	1660	3011
1	1643	3012
1	1638	3013
1	1634	3014
1	1620	3015
1	1603	3016
1	1587	3017
1	1580	3018
1	1571	3019
1	1564	3020
1	1559	3021
1	1563	3022
1	1563	3023
1	1566	3024
1	1579	3025
1	1593	3026
1	1608	3027
1	1622	3028
1	1633	3029
1	1635	3030
1	1634	3031
1	1634	3032
1	1637	3033
1	1636	3034
1	1634	3035
1	1638	3036
1	1647	3037
1	1652	3038
1	1656	3039
1	1659	3040
1	1659	3041
1	1648	3042
1	1635	3043
1	1628	3044
1	1607	3045
1	1586	3046
1	1575	3047
1	1566	3048
1	1556	3049
1	1549	3050
1	1544	3051
1	1547	3052
1	1559	3053
1	1570	3054
1	1580	3055
1	1584	3056
1	1587	3057
1	1598	3058
1	1602	3059
1	1605	3060
1	1605	3061
1	1598	3062
1	1592	3063
1	1581	3064
1	1580	3065
1	1581	3066
1	1587	3067
1	1595	3068
1	1593	3069
1	1590	3070
1	1581	3071
1	1568	3072
1	1569	3073
1	1572	3074
1	1581	3075
1	1593	3076
1	1608	3077
1	1626	3078
1	1638	3079
1	1647	3080
1	1652	3081
1	1649	3082
1	1637	3083
1	1615	3084
1	1593	3085
1	1581	3086
1	1571	3087
1	1575	3088
1	1578	3089
1	1586	3090
1	1603	3091
1	1619	3092
1	1634	3093
1	1648	3094
1	1659	3095
1	1660	3096
1	1656	3097
1	1652	3098
1	1645	3099
1	1643	3100
1	1638	3101
1	1636	3102
1	1641	3103
1	1643	3104
1	1643	3105
1	1644	3106
1	1647	3107
1	1647	3108
1	1649	3109
1	1656	3110
1	1660	3111
1	1661	3112
1	1665	3113
1	1660	3114
1	1660	3115
1	1662	3116
1	1674	3117
1	1694	3118
1	1704	3119
1	1707	3120
1	1700	3121
1	1706	3122
1	1700	3123
1	1691	3124
1	1686	3125
1	1685	3126
1	1686	3127
1	1692	3128
1	1693	3129
1	1695	3130
1	1698	3131
1	1703	3132
1	1710	3133
1	1710	3134
1	1710	3135
1	1711	3136
1	1717	3137
1	1736	3138
1	1746	3139
1	1760	3140
1	1769	3141
1	1771	3142
1	1772	3143
1	1767	3144
1	1764	3145
1	1764	3146
1	1769	3147
1	1773	3148
1	1786	3149
1	1790	3150
1	1791	3151
1	1791	3152
1	1791	3153
1	1791	3154
1	1789	3155
1	1791	3156
1	1794	3157
1	1796	3158
1	1782	3159
1	1764	3160
1	1742	3161
1	1719	3162
1	1705	3163
1	1693	3164
1	1692	3165
1	1697	3166
1	1707	3167
1	1719	3168
1	1733	3169
1	1742	3170
1	1751	3171
1	1757	3172
1	1768	3173
1	1779	3174
1	1795	3175
1	1814	3176
1	1821	3177
1	1832	3178
1	1838	3179
1	1834	3180
1	1824	3181
1	1809	3182
1	1790	3183
1	1765	3184
1	1741	3185
1	1720	3186
1	1708	3187
1	1701	3188
1	1693	3189
1	1692	3190
1	1694	3191
1	1698	3192
1	1712	3193
1	1724	3194
1	1742	3195
1	1757	3196
1	1768	3197
1	1783	3198
1	1795	3199
1	1811	3200
1	1821	3201
1	1821	3202
1	1812	3203
1	1782	3204
1	1762	3205
1	1736	3206
1	1711	3207
1	1706	3208
1	1699	3209
1	1702	3210
1	1712	3211
1	1721	3212
1	1737	3213
1	1747	3214
1	1757	3215
1	1762	3216
1	1766	3217
1	1777	3218
1	1777	3219
1	1770	3220
1	1756	3221
1	1738	3222
1	1723	3223
1	1712	3224
1	1696	3225
1	1690	3226
1	1689	3227
1	1700	3228
1	1722	3229
1	1751	3230
1	1787	3231
1	1823	3232
1	1851	3233
1	1860	3234
1	1867	3235
1	1865	3236
1	1857	3237
1	1843	3238
1	1832	3239
1	1816	3240
1	1800	3241
1	1780	3242
1	1760	3243
1	1738	3244
1	1724	3245
1	1712	3246
1	1713	3247
1	1721	3248
1	1715	3249
1	1714	3250
1	1714	3251
1	1713	3252
1	1711	3253
1	1712	3254
1	1700	3255
1	1692	3256
1	1690	3257
1	1697	3258
1	1701	3259
1	1705	3260
1	1708	3261
1	1710	3262
1	1711	3263
1	1709	3264
1	1713	3265
1	1725	3266
1	1741	3267
1	1755	3268
1	1760	3269
1	1760	3270
1	1754	3271
1	1755	3272
1	1757	3273
1	1760	3274
1	1757	3275
1	1755	3276
1	1751	3277
1	1747	3278
1	1733	3279
1	1719	3280
1	1711	3281
1	1708	3282
1	1708	3283
1	1701	3284
1	1700	3285
1	1705	3286
1	1715	3287
1	1728	3288
1	1737	3289
1	1741	3290
1	1751	3291
1	1760	3292
1	1764	3293
1	1762	3294
1	1755	3295
1	1750	3296
1	1744	3297
1	1752	3298
1	1755	3299
1	1764	3300
1	1766	3301
1	1766	3302
1	1764	3303
1	1760	3304
1	1752	3305
1	1747	3306
1	1738	3307
1	1736	3308
1	1731	3309
1	1734	3310
1	1737	3311
1	1737	3312
1	1738	3313
1	1738	3314
1	1737	3315
1	1731	3316
1	1723	3317
1	1721	3318
1	1726	3319
1	1736	3320
1	1749	3321
1	1760	3322
1	1765	3323
1	1763	3324
1	1754	3325
1	1751	3326
1	1744	3327
1	1738	3328
1	1736	3329
1	1737	3330
1	1738	3331
1	1735	3332
1	1723	3333
1	1715	3334
1	1710	3335
1	1707	3336
1	1710	3337
1	1711	3338
1	1710	3339
1	1718	3340
1	1729	3341
1	1738	3342
1	1747	3343
1	1760	3344
1	1762	3345
1	1764	3346
1	1766	3347
1	1775	3348
1	1787	3349
1	1796	3350
1	1812	3351
1	1818	3352
1	1817	3353
1	1796	3354
1	1778	3355
1	1765	3356
1	1753	3357
1	1744	3358
1	1730	3359
1	1716	3360
1	1705	3361
1	1692	3362
1	1686	3363
1	1686	3364
1	1686	3365
1	1686	3366
1	1692	3367
1	1705	3368
1	1712	3369
1	1724	3370
1	1734	3371
1	1738	3372
1	1747	3373
1	1753	3374
1	1753	3375
1	1754	3376
1	1760	3377
1	1763	3378
1	1755	3379
1	1751	3380
1	1742	3381
1	1738	3382
1	1737	3383
1	1737	3384
1	1737	3385
1	1737	3386
1	1737	3387
1	1741	3388
1	1738	3389
1	1734	3390
1	1723	3391
1	1716	3392
1	1717	3393
1	1723	3394
1	1732	3395
1	1739	3396
1	1751	3397
1	1764	3398
1	1769	3399
1	1782	3400
1	1791	3401
1	1791	3402
1	1779	3403
1	1770	3404
1	1760	3405
1	1749	3406
1	1738	3407
1	1734	3408
1	1734	3409
1	1734	3410
1	1736	3411
1	1741	3412
1	1743	3413
1	1737	3414
1	1733	3415
1	1738	3416
1	1747	3417
1	1764	3418
1	1777	3419
1	1791	3420
1	1808	3421
1	1814	3422
1	1813	3423
1	1791	3424
1	1778	3425
1	1764	3426
1	1751	3427
1	1738	3428
1	1724	3429
1	1714	3430
1	1712	3431
1	1711	3432
1	1712	3433
1	1718	3434
1	1720	3435
1	1723	3436
1	1724	3437
1	1721	3438
1	1721	3439
1	1723	3440
1	1726	3441
1	1726	3442
1	1726	3443
1	1712	3444
1	1710	3445
1	1704	3446
1	1697	3447
1	1692	3448
1	1689	3449
1	1686	3450
1	1682	3451
1	1677	3452
1	1677	3453
1	1679	3454
1	1678	3455
1	1676	3456
1	1684	3457
1	1698	3458
1	1712	3459
1	1737	3460
1	1760	3461
1	1787	3462
1	1817	3463
1	1826	3464
1	1820	3465
1	1803	3466
1	1783	3467
1	1764	3468
1	1739	3469
1	1723	3470
1	1712	3471
1	1705	3472
1	1700	3473
1	1698	3474
1	1705	3475
1	1727	3476
1	1756	3477
1	1788	3478
1	1809	3479
1	1825	3480
1	1832	3481
1	1832	3482
1	1827	3483
1	1818	3484
1	1809	3485
1	1790	3486
1	1770	3487
1	1759	3488
1	1742	3489
1	1738	3490
1	1741	3491
1	1742	3492
1	1751	3493
1	1754	3494
1	1757	3495
1	1759	3496
1	1759	3497
1	1760	3498
1	1763	3499
1	1762	3500
1	1757	3501
1	1751	3502
1	1740	3503
1	1723	3504
1	1712	3505
1	1705	3506
1	1707	3507
1	1715	3508
1	1731	3509
1	1737	3510
1	1738	3511
1	1735	3512
1	1725	3513
1	1715	3514
1	1712	3515
1	1710	3516
1	1712	3517
1	1718	3518
1	1719	3519
1	1716	3520
1	1713	3521
1	1711	3522
1	1701	3523
1	1700	3524
1	1688	3525
1	1691	3526
1	1692	3527
1	1697	3528
1	1698	3529
1	1707	3530
1	1721	3531
1	1738	3532
1	1751	3533
1	1759	3534
1	1760	3535
1	1755	3536
1	1746	3537
1	1731	3538
1	1711	3539
1	1691	3540
1	1685	3541
1	1677	3542
1	1668	3543
1	1660	3544
1	1654	3545
1	1656	3546
1	1669	3547
1	1686	3548
1	1692	3549
1	1702	3550
1	1714	3551
1	1724	3552
1	1734	3553
1	1743	3554
1	1746	3555
1	1751	3556
1	1755	3557
1	1764	3558
1	1766	3559
1	1764	3560
1	1752	3561
1	1733	3562
1	1706	3563
1	1677	3564
1	1656	3565
1	1638	3566
1	1625	3567
1	1621	3568
1	1613	3569
1	1607	3570
1	1604	3571
1	1607	3572
1	1607	3573
1	1602	3574
1	1599	3575
1	1605	3576
1	1611	3577
1	1621	3578
1	1629	3579
1	1644	3580
1	1661	3581
1	1674	3582
1	1688	3583
1	1693	3584
1	1694	3585
1	1697	3586
1	1695	3587
1	1688	3588
1	1686	3589
1	1679	3590
1	1670	3591
1	1661	3592
1	1661	3593
1	1657	3594
1	1654	3595
1	1655	3596
1	1657	3597
1	1662	3598
1	1683	3599
1	1697	3600
1	1714	3601
1	1725	3602
1	1728	3603
1	1721	3604
1	1712	3605
1	1702	3606
1	1693	3607
1	1686	3608
1	1685	3609
1	1690	3610
1	1701	3611
1	1713	3612
1	1736	3613
1	1741	3614
1	1747	3615
1	1751	3616
1	1748	3617
1	1742	3618
1	1741	3619
1	1739	3640
1	1738	3641
1	1733	3642
1	1728	3643
1	1724	3644
1	1718	3645
1	1723	3646
1	1737	3647
1	1760	3648
1	1787	3649
1	1809	3650
1	1825	3651
1	1840	3652
1	1841	3653
1	1836	3654
1	1819	3655
1	1795	3656
1	1783	3657
1	1776	3658
1	1765	3659
1	1760	3640
1	1751	3641
1	1744	3642
1	1740	3643
1	1744	3644
1	1741	3645
1	1737	3646
1	1731	3647
1	1728	3648
1	1728	3649
1	1728	3650
1	1734	3651
1	1737	3652
1	1739	3653
1	1742	3654
1	1747	3655
1	1752	3656
1	1760	3657
1	1776	3658
1	1788	3659
1	1792	3660
1	1791	3661
1	1782	3662
1	1768	3663
1	1757	3664
1	1742	3665
1	1724	3666
1	1700	3667
1	1683	3668
1	1658	3669
1	1638	3670
1	1629	3671
1	1625	3672
1	1629	3673
1	1634	3674
1	1638	3675
1	1636	3676
1	1639	3677
1	1649	3678
1	1654	3679
1	1647	3680
1	1633	3681
1	1607	3682
1	1581	3683
1	1550	3684
1	1512	3685
1	1472	3686
1	1428	3687
1	1393	3688
1	1346	3689
1	1307	3690
1	1276	3691
1	1245	3692
1	1224	3693
1	1206	3694
1	1193	3695
1	1187	3696
1	1188	3697
1	1197	3698
1	1209	3699
1	1219	3700
1	1231	3701
1	1241	3702
1	1268	3703
1	1305	3704
1	1358	3705
1	1428	3706
1	1508	3707
1	1603	3708
1	1696	3709
1	1786	3710
1	1869	3711
1	1935	3712
1	1987	3713
1	2026	3714
1	2061	3715
1	2087	3716
1	2107	3717
1	2129	3718
1	2131	3719
1	2124	3720
1	2105	3721
1	2087	3722
1	2066	3723
1	2028	3724
1	1994	3725
1	1961	3726
1	1926	3727
1	1897	3728
1	1873	3729
1	1859	3730
1	1844	3731
1	1828	3732
1	1816	3733
1	1796	3734
1	1780	3735
1	1760	3736
1	1742	3737
1	1725	3738
1	1714	3739
1	1716	3740
1	1724	3741
1	1730	3742
1	1736	3743
1	1733	3744
1	1736	3745
1	1737	3746
1	1737	3747
1	1723	3748
1	1712	3749
1	1697	3750
1	1681	3751
1	1668	3752
1	1661	3753
1	1660	3754
1	1661	3755
1	1674	3756
1	1686	3757
1	1701	3758
1	1712	3759
1	1727	3760
1	1736	3761
1	1731	3762
1	1718	3763
1	1692	3764
1	1659	3765
1	1630	3766
1	1609	3767
1	1604	3768
1	1607	3769
1	1621	3770
1	1636	3771
1	1656	3772
1	1672	3773
1	1683	3774
1	1693	3775
1	1695	3776
1	1692	3777
1	1696	3778
1	1697	3779
1	1701	3780
1	1707	3781
1	1705	3782
1	1714	3783
1	1714	3784
1	1713	3785
1	1712	3786
1	1707	3787
1	1700	3788
1	1684	3789
1	1675	3790
1	1673	3791
1	1673	3792
1	1677	3793
1	1677	3794
1	1678	3795
1	1681	3796
1	1683	3797
1	1686	3798
1	1688	3799
1	1687	3800
1	1684	3801
1	1669	3802
1	1656	3803
1	1634	3804
1	1622	3805
1	1610	3806
1	1598	3807
1	1587	3808
1	1589	3809
1	1593	3810
1	1607	3811
1	1628	3812
1	1651	3813
1	1676	3814
1	1697	3815
1	1712	3816
1	1730	3817
1	1743	3818
1	1743	3819
1	1692	3840
1	1692	3841
1	1688	3842
1	1686	3843
1	1684	3844
1	1675	3845
1	1661	3846
1	1649	3847
1	1644	3848
1	1633	3849
1	1631	3850
1	1634	3851
1	1632	3852
1	1634	3853
1	1638	3854
1	1636	3855
1	1633	3856
1	1629	3857
1	1631	3858
1	1638	3859
1	1739	3820
1	1734	3821
1	1724	3822
1	1710	3823
1	1692	3824
1	1658	3825
1	1635	3826
1	1618	3827
1	1607	3828
1	1599	3829
1	1597	3830
1	1598	3831
1	1597	3832
1	1595	3833
1	1595	3834
1	1607	3835
1	1632	3836
1	1655	3837
1	1679	3838
1	1691	3839
1	1647	3860
1	1658	3861
1	1669	3862
1	1670	3863
1	1660	3864
1	1647	3865
1	1634	3866
1	1622	3867
1	1613	3868
1	1596	3869
1	1581	3870
1	1574	3871
1	1575	3872
1	1581	3873
1	1590	3874
1	1602	3875
1	1609	3876
1	1620	3877
1	1633	3878
1	1634	3879
1	1587	3900
1	1586	3901
1	1584	3902
1	1581	3903
1	1570	3904
1	1556	3905
1	1548	3906
1	1543	3907
1	1536	3908
1	1525	3909
1	1517	3910
1	1517	3911
1	1524	3912
1	1539	3913
1	1553	3914
1	1563	3915
1	1572	3916
1	1577	3917
1	1581	3918
1	1581	3919
1	1638	3880
1	1634	3881
1	1628	3882
1	1625	3883
1	1611	3884
1	1602	3885
1	1594	3886
1	1587	3887
1	1584	3888
1	1579	3889
1	1579	3890
1	1579	3891
1	1578	3892
1	1582	3893
1	1586	3894
1	1589	3895
1	1584	3896
1	1580	3897
1	1580	3898
1	1584	3899
1	1577	3920
1	1561	3921
1	1555	3922
1	1544	3923
1	1535	3924
1	1525	3925
1	1514	3926
1	1508	3927
1	1508	3928
1	1523	3929
1	1542	3930
1	1570	3931
1	1604	3932
1	1629	3933
1	1642	3934
1	1647	3935
1	1647	3936
1	1637	3937
1	1625	3938
1	1607	3939
1	1594	3940
1	1574	3941
1	1541	3942
1	1503	3943
1	1476	3944
1	1454	3945
1	1443	3946
1	1443	3947
1	1443	3948
1	1443	3949
1	1443	3950
1	1441	3951
1	1449	3952
1	1463	3953
1	1476	3954
1	1494	3955
1	1508	3956
1	1521	3957
1	1536	3958
1	1544	3959
1	1553	3960
1	1557	3961
1	1555	3962
1	1546	3963
1	1530	3964
1	1520	3965
1	1503	3966
1	1501	3967
1	1503	3968
1	1503	3969
1	1517	3970
1	1537	3971
1	1548	3972
1	1555	3973
1	1554	3974
1	1556	3975
1	1567	3976
1	1581	3977
1	1597	3978
1	1608	3979
1	1620	3980
1	1620	3981
1	1608	3982
1	1602	3983
1	1584	3984
1	1561	3985
1	1540	3986
1	1527	3987
1	1518	3988
1	1508	3989
1	1508	3990
1	1517	3991
1	1530	3992
1	1544	3993
1	1560	3994
1	1577	3995
1	1584	3996
1	1589	3997
1	1595	3998
1	1595	3999
1	1597	4000
1	1607	4001
1	1620	4002
1	1637	4003
1	1652	4004
1	1651	4005
1	1650	4006
1	1652	4006
1	1659	4008
1	1662	4009
1	1669	4010
1	1672	4011
1	1674	4012
1	1679	4013
1	1678	4014
1	1675	4014
1	1673	4016
1	1669	4017
1	1672	4018
1	1665	4019
1	1652	4020
1	1636	4021
1	1631	4022
1	1634	4022
1	1625	4024
1	1628	4025
1	1634	4026
1	1647	4027
1	1665	4028
1	1687	4029
1	1711	4030
1	1728	4030
1	1739	4032
1	1751	4033
1	1753	4034
1	1749	4035
1	1746	4036
1	1749	4037
1	1744	4038
1	1736	4038
1	1723	4040
1	1710	4041
1	1699	4042
1	1692	4043
1	1685	4044
1	1685	4045
1	1688	4046
1	1696	4046
1	1701	4048
1	1712	4049
1	1716	4050
1	1724	4051
1	1734	4052
1	1738	4053
1	1736	4054
1	1726	4054
1	1713	4056
1	1701	4057
1	1691	4058
1	1678	4059
1	1665	4060
1	1654	4061
1	1647	4062
1	1660	4062
1	1664	4064
1	1670	4065
1	1676	4066
1	1686	4067
1	1697	4068
1	1708	4069
1	1721	4070
1	1738	4070
1	1753	4072
1	1764	4073
1	1753	4074
1	1741	4075
1	1728	4076
1	1715	4077
1	1708	4078
1	1695	4078
1	1687	4080
1	1684	4081
1	1680	4082
1	1677	4083
1	1681	4084
1	1687	4085
1	1697	4086
1	1710	4086
1	1716	4088
1	1723	4089
1	1728	4090
1	1733	4091
1	1729	4092
1	1730	4093
1	1728	4094
1	1723	4094
1	1719	4096
1	1713	4097
1	1719	4098
1	1733	4099
1	1747	4100
1	1751	4101
1	1746	4102
1	1733	4103
1	1707	4104
1	1685	4105
1	1668	4106
1	1660	4107
1	1662	4108
1	1661	4109
1	1667	4110
1	1673	4111
1	1683	4112
1	1686	4113
1	1698	4114
1	1708	4115
1	1713	4116
1	1723	4117
1	1733	4118
1	1736	4119
1	1737	4120
1	1735	4121
1	1728	4122
1	1726	4123
1	1724	4124
1	1713	4125
1	1704	4126
1	1701	4127
1	1703	4128
1	1697	4129
1	1691	4130
1	1686	4131
1	1683	4132
1	1677	4133
1	1674	4134
1	1661	4135
1	1648	4136
1	1632	4137
1	1623	4138
1	1631	4139
1	1700	4180
1	1716	4181
1	1726	4182
1	1737	4183
1	1736	4184
1	1726	4185
1	1712	4186
1	1701	4187
1	1693	4188
1	1686	4189
1	1681	4190
1	1681	4191
1	1683	4192
1	1683	4193
1	1674	4194
1	1667	4195
1	1661	4196
1	1660	4197
1	1660	4198
1	1663	4199
1	1646	4140
1	1669	4141
1	1688	4142
1	1703	4143
1	1706	4144
1	1705	4145
1	1695	4146
1	1682	4147
1	1662	4148
1	1643	4149
1	1634	4150
1	1626	4151
1	1631	4152
1	1642	4153
1	1660	4154
1	1671	4155
1	1686	4156
1	1699	4157
1	1713	4158
1	1726	4159
1	1730	4160
1	1724	4161
1	1711	4162
1	1698	4163
1	1685	4164
1	1679	4165
1	1672	4166
1	1671	4167
1	1679	4168
1	1679	4169
1	1675	4170
1	1675	4171
1	1675	4172
1	1677	4173
1	1672	4174
1	1664	4175
1	1661	4176
1	1667	4177
1	1677	4178
1	1685	4179
1	1662	4200
1	1662	4201
1	1661	4202
1	1660	4203
1	1667	4204
1	1686	4205
1	1708	4206
1	1730	4207
1	1751	4208
1	1755	4209
1	1760	4210
1	1754	4211
1	1742	4212
1	1734	4213
1	1715	4214
1	1704	4215
1	1700	4216
1	1699	4217
1	1694	4218
1	1688	4219
1	1682	4220
1	1664	4221
1	1660	4222
1	1651	4223
1	1639	4224
1	1632	4225
1	1636	4226
1	1654	4227
1	1674	4228
1	1693	4229
1	1710	4230
1	1724	4231
1	1738	4232
1	1738	4233
1	1738	4234
1	1731	4235
1	1715	4236
1	1705	4237
1	1694	4238
1	1679	4239
1	1664	4240
1	1654	4241
1	1644	4242
1	1643	4243
1	1656	4244
1	1674	4245
1	1691	4246
1	1710	4247
1	1724	4248
1	1738	4249
1	1746	4250
1	1750	4251
1	1748	4252
1	1742	4253
1	1731	4254
1	1724	4255
1	1726	4256
1	1729	4257
1	1737	4258
1	1739	4259
1	1750	4260
1	1753	4261
1	1746	4262
1	1732	4263
1	1707	4264
1	1685	4265
1	1670	4266
1	1661	4267
1	1660	4268
1	1650	4269
1	1646	4270
1	1647	4271
1	1656	4272
1	1674	4273
1	1697	4274
1	1726	4275
1	1754	4276
1	1776	4277
1	1791	4278
1	1791	4279
1	1780	4280
1	1763	4281
1	1738	4282
1	1712	4283
1	1684	4284
1	1656	4285
1	1634	4286
1	1616	4287
1	1613	4288
1	1612	4289
1	1617	4290
1	1624	4291
1	1634	4292
1	1647	4293
1	1658	4294
1	1668	4295
1	1683	4296
1	1701	4297
1	1728	4298
1	1740	4299
1	1749	4300
1	1755	4301
1	1763	4302
1	1760	4303
1	1757	4304
1	1741	4305
1	1733	4306
1	1721	4307
1	1711	4308
1	1700	4309
1	1691	4310
1	1686	4311
1	1687	4312
1	1692	4313
1	1695	4314
1	1699	4315
1	1706	4316
1	1708	4317
1	1712	4318
1	1710	4319
1	1707	4320
1	1697	4321
1	1694	4322
1	1697	4323
1	1685	4324
1	1684	4325
1	1689	4326
1	1701	4327
1	1713	4328
1	1724	4329
1	1738	4330
1	1751	4331
1	1764	4332
1	1773	4333
1	1777	4334
1	1766	4335
1	1760	4336
1	1752	4337
1	1740	4338
1	1733	4339
1	1718	4340
1	1701	4341
1	1685	4342
1	1662	4343
1	1638	4344
1	1620	4345
1	1608	4346
1	1606	4347
1	1607	4348
1	1628	4349
1	1651	4350
1	1677	4351
1	1703	4352
1	1724	4353
1	1741	4354
1	1751	4355
1	1759	4356
1	1760	4357
1	1759	4358
1	1746	4359
1	1729	4360
1	1712	4361
1	1698	4362
1	1693	4363
1	1688	4364
1	1687	4365
1	1686	4366
1	1683	4367
1	1674	4368
1	1674	4369
1	1681	4370
1	1687	4371
1	1696	4372
1	1706	4373
1	1712	4374
1	1726	4375
1	1740	4376
1	1755	4377
1	1765	4378
1	1764	4379
1	1762	4380
1	1754	4381
1	1744	4382
1	1729	4383
1	1710	4384
1	1697	4385
1	1686	4386
1	1685	4387
1	1687	4388
1	1687	4389
1	1696	4390
1	1702	4391
1	1708	4392
1	1720	4393
1	1728	4394
1	1733	4395
1	1733	4396
1	1724	4397
1	1712	4398
1	1698	4399
1	1686	4400
1	1679	4401
1	1674	4402
1	1665	4403
1	1652	4404
1	1646	4405
1	1644	4406
1	1644	4407
1	1650	4408
1	1661	4409
1	1675	4410
1	1689	4411
1	1707	4412
1	1723	4413
1	1736	4414
1	1743	4415
1	1755	4416
1	1770	4417
1	1786	4418
1	1780	4419
1	1772	4420
1	1757	4421
1	1737	4422
1	1712	4423
1	1688	4424
1	1656	4425
1	1626	4426
1	1602	4427
1	1584	4428
1	1571	4429
1	1558	4430
1	1557	4431
1	1564	4432
1	1574	4433
1	1581	4434
1	1599	4435
1	1622	4436
1	1651	4437
1	1681	4438
1	1707	4439
1	1721	4440
1	1739	4441
1	1750	4442
1	1751	4443
1	1743	4444
1	1724	4445
1	1697	4446
1	1671	4447
1	1652	4448
1	1634	4449
1	1626	4450
1	1616	4451
1	1610	4452
1	1617	4453
1	1629	4454
1	1634	4455
1	1644	4456
1	1652	4457
1	1658	4458
1	1657	4459
1	1652	4460
1	1649	4461
1	1647	4462
1	1647	4463
1	1641	4464
1	1639	4465
1	1637	4466
1	1635	4467
1	1641	4468
1	1634	4469
1	1623	4470
1	1610	4471
1	1600	4472
1	1594	4473
1	1593	4474
1	1595	4475
1	1606	4476
1	1616	4477
1	1633	4478
1	1646	4479
1	1665	4480
1	1688	4481
1	1703	4482
1	1714	4483
1	1717	4484
1	1721	4485
1	1718	4486
1	1716	4487
1	1720	4488
1	1725	4489
1	1730	4490
1	1734	4491
1	1739	4492
1	1751	4493
1	1751	4494
1	1749	4495
1	1746	4496
1	1749	4497
1	1750	4498
1	1759	4499
1	1765	4500
1	1770	4501
1	1773	4502
1	1769	4503
1	1763	4504
1	1746	4505
1	1731	4506
1	1718	4507
1	1712	4508
1	1699	4509
1	1685	4510
1	1670	4511
1	1660	4512
1	1661	4513
1	1669	4514
1	1681	4515
1	1698	4516
1	1721	4517
1	1751	4518
1	1778	4519
1	1799	4520
1	1796	4521
1	1791	4522
1	1770	4523
1	1752	4524
1	1735	4525
1	1712	4526
1	1697	4527
1	1686	4528
1	1677	4529
1	1669	4530
1	1670	4531
1	1684	4532
1	1688	4533
1	1702	4534
1	1713	4535
1	1727	4536
1	1740	4537
1	1752	4538
1	1760	4539
1	1080	4580
1	1105	4581
1	1141	4582
1	1187	4583
1	1229	4584
1	1272	4585
1	1325	4586
1	1384	4587
1	1452	4588
1	1520	4589
1	1585	4590
1	1647	4591
1	1712	4592
1	1779	4593
1	1849	4594
1	1913	4595
1	1965	4596
1	2009	4597
1	2040	4598
1	2054	4599
1	1764	4540
1	1768	4541
1	1764	4542
1	1765	4543
1	1757	4544
1	1744	4545
1	1737	4546
1	1731	4547
1	1729	4548
1	1721	4549
1	1717	4550
1	1721	4551
1	1726	4552
1	1737	4553
1	1738	4554
1	1746	4555
1	1759	4556
1	1768	4557
1	1787	4558
1	1788	4559
1	1775	4560
1	1754	4561
1	1724	4562
1	1686	4563
1	1644	4564
1	1600	4565
1	1560	4566
1	1529	4567
1	1495	4568
1	1450	4569
1	1402	4570
1	1345	4571
1	1285	4572
1	1237	4573
1	1188	4574
1	1152	4575
1	1128	4576
1	1105	4577
1	1088	4578
1	1076	4579
1	2066	4600
1	2068	4601
1	2056	4602
1	2038	4603
1	2022	4604
1	1998	4605
1	1976	4606
1	1970	4607
1	1962	4608
1	1951	4609
1	1939	4610
1	1926	4611
1	1919	4612
1	1913	4613
1	1899	4614
1	1886	4615
1	1868	4616
1	1841	4617
1	1814	4618
1	1782	4619
1	1752	4620
1	1718	4621
1	1701	4622
1	1686	4623
1	1665	4624
1	1660	4625
1	1665	4626
1	1681	4627
1	1700	4628
1	1718	4629
1	1739	4630
1	1759	4631
1	1770	4632
1	1778	4633
1	1765	4634
1	1746	4635
1	1727	4636
1	1712	4637
1	1697	4638
1	1681	4639
1	1668	4640
1	1663	4641
1	1665	4642
1	1674	4643
1	1679	4644
1	1686	4645
1	1689	4646
1	1688	4647
1	1691	4648
1	1688	4649
1	1690	4650
1	1695	4651
1	1697	4652
1	1698	4653
1	1701	4654
1	1703	4655
1	1710	4656
1	1718	4657
1	1729	4658
1	1723	4659
1	1715	4660
1	1712	4661
1	1713	4662
1	1720	4663
1	1717	4664
1	1715	4665
1	1713	4666
1	1712	4667
1	1706	4668
1	1693	4669
1	1672	4670
1	1649	4671
1	1633	4672
1	1618	4673
1	1613	4674
1	1618	4675
1	1626	4676
1	1642	4677
1	1664	4678
1	1688	4679
1	1709	4680
1	1720	4681
1	1728	4682
1	1730	4683
1	1724	4684
1	1714	4685
1	1708	4686
1	1698	4687
1	1692	4688
1	1688	4689
1	1692	4690
1	1692	4691
1	1688	4692
1	1692	4693
1	1686	4694
1	1679	4695
1	1671	4696
1	1664	4697
1	1670	4698
1	1682	4699
1	1692	4700
1	1702	4701
1	1710	4702
1	1712	4703
1	1705	4704
1	1701	4705
1	1697	4706
1	1688	4707
1	1681	4708
1	1675	4709
1	1662	4710
1	1654	4711
1	1646	4712
1	1638	4713
1	1638	4714
1	1641	4715
1	1646	4716
1	1649	4717
1	1647	4718
1	1634	4719
1	1620	4720
1	1606	4721
1	1590	4722
1	1582	4723
1	1584	4724
1	1581	4725
1	1579	4726
1	1581	4727
1	1582	4728
1	1581	4729
1	1583	4730
1	1585	4731
1	1595	4732
1	1611	4733
1	1628	4734
1	1647	4735
1	1667	4736
1	1682	4737
1	1689	4738
1	1699	4739
1	1704	4740
1	1712	4741
1	1710	4742
1	1695	4743
1	1679	4744
1	1663	4745
1	1656	4746
1	1650	4747
1	1646	4748
1	1634	4749
1	1625	4750
1	1621	4751
1	1620	4752
1	1625	4753
1	1634	4754
1	1644	4755
1	1646	4756
1	1642	4757
1	1637	4758
1	1636	4759
1	1634	4760
1	1629	4761
1	1620	4762
1	1612	4763
1	1602	4764
1	1589	4765
1	1575	4766
1	1566	4767
1	1566	4768
1	1565	4769
1	1567	4770
1	1576	4771
1	1589	4772
1	1607	4773
1	1626	4774
1	1636	4775
1	1637	4776
1	1634	4777
1	1623	4778
1	1610	4779
1	1599	4780
1	1583	4781
1	1571	4782
1	1561	4783
1	1550	4784
1	1536	4785
1	1530	4786
1	1537	4787
1	1552	4788
1	1564	4789
1	1576	4790
1	1582	4791
1	1586	4792
1	1584	4793
1	1579	4794
1	1577	4795
1	1581	4796
1	1581	4797
1	1581	4798
1	1583	4799
1	1587	4800
1	1590	4801
1	1590	4802
1	1587	4803
1	1582	4804
1	1575	4805
1	1563	4806
1	1553	4807
1	1541	4808
1	1525	4809
1	1513	4810
1	1508	4811
1	1513	4812
1	1525	4813
1	1533	4814
1	1546	4815
1	1556	4816
1	1567	4817
1	1581	4818
1	1594	4819
1	1604	4820
1	1599	4821
1	1593	4822
1	1574	4823
1	1549	4824
1	1515	4825
1	1493	4826
1	1476	4827
1	1464	4828
1	1453	4829
1	1449	4830
1	1441	4831
1	1450	4832
1	1454	4833
1	1473	4834
1	1489	4835
1	1507	4836
1	1529	4837
1	1555	4838
1	1568	4839
1	1581	4840
1	1597	4841
1	1607	4842
1	1616	4843
1	1611	4844
1	1600	4845
1	1584	4846
1	1568	4847
1	1557	4848
1	1554	4849
1	1555	4850
1	1554	4851
1	1550	4852
1	1549	4853
1	1546	4854
1	1549	4855
1	1556	4856
1	1564	4857
1	1579	4858
1	1581	4859
1	1582	4860
1	1582	4861
1	1578	4862
1	1568	4863
1	1555	4864
1	1539	4865
1	1524	4866
1	1515	4867
1	1514	4868
1	1508	4869
1	1512	4870
1	1512	4871
1	1518	4872
1	1530	4873
1	1546	4874
1	1555	4875
1	1566	4876
1	1572	4877
1	1582	4878
1	1595	4879
1	1608	4880
1	1623	4881
1	1633	4882
1	1632	4883
1	1612	4884
1	1605	4885
1	1605	4886
1	1613	4887
1	1634	4888
1	1643	4889
1	1647	4890
1	1654	4891
1	1661	4892
1	1675	4893
1	1693	4894
1	1703	4895
1	1705	4896
1	1700	4897
1	1697	4898
1	1689	4899
1	1691	4900
1	1697	4901
1	1703	4902
1	1713	4903
1	1712	4904
1	1710	4905
1	1700	4906
1	1691	4907
1	1686	4908
1	1674	4909
1	1662	4910
1	1656	4911
1	1648	4912
1	1646	4913
1	1636	4914
1	1634	4915
1	1634	4916
1	1643	4917
1	1665	4918
1	1688	4919
1	1721	4920
1	1741	4921
1	1752	4922
1	1773	4923
1	1780	4924
1	1783	4925
1	1788	4926
1	1790	4927
1	1791	4928
1	1788	4929
1	1782	4930
1	1780	4931
1	1778	4932
1	1773	4933
1	1766	4934
1	1756	4935
1	1744	4936
1	1746	4937
1	1741	4938
1	1737	4939
1	1728	4940
1	1724	4941
1	1721	4942
1	1718	4943
1	1703	4944
1	1686	4945
1	1674	4946
1	1668	4947
1	1666	4948
1	1678	4949
1	1683	4950
1	1686	4951
1	1687	4952
1	1688	4953
1	1691	4954
1	1697	4955
1	1698	4956
1	1697	4957
1	1687	4958
1	1672	4959
1	1664	4960
1	1663	4961
1	1665	4962
1	1672	4963
1	1670	4964
1	1677	4965
1	1690	4966
1	1710	4967
1	1725	4968
1	1743	4969
1	1764	4970
1	1779	4971
1	1787	4972
1	1787	4973
1	1776	4974
1	1769	4975
1	1756	4976
1	1741	4977
1	1733	4978
1	1724	4979
1	1722	4980
1	1721	4981
1	1722	4982
1	1721	4983
1	1722	4984
1	1720	4985
1	1712	4986
1	1708	4987
1	1701	4988
1	1687	4989
1	1679	4990
1	1668	4991
1	1665	4992
1	1683	4993
1	1700	4994
1	1719	4995
1	1737	4996
1	1749	4997
1	1763	4998
1	1773	4999
1	1782	5000
1	1787	5001
1	1782	5002
1	1768	5003
1	1743	5004
1	1713	5005
1	1683	5006
1	1651	5007
1	1636	5008
1	1630	5009
1	1635	5010
1	1652	5011
1	1677	5012
1	1710	5013
1	1738	5014
1	1767	5015
1	1789	5016
1	1795	5017
1	1796	5018
1	1788	5019
1	1773	5020
1	1762	5021
1	1743	5022
1	1728	5023
1	1720	5024
1	1710	5025
1	1688	5026
1	1686	5027
1	1683	5028
1	1682	5029
1	1682	5030
1	1683	5031
1	1686	5032
1	1690	5033
1	1691	5034
1	1694	5035
1	1705	5036
1	1714	5037
1	1725	5038
1	1736	5039
1	1737	5040
1	1739	5041
1	1737	5042
1	1728	5043
1	1712	5044
1	1693	5045
1	1670	5046
1	1652	5047
1	1636	5048
1	1622	5049
1	1623	5050
1	1636	5051
1	1660	5052
1	1687	5053
1	1706	5054
1	1719	5055
1	1733	5056
1	1741	5057
1	1740	5058
1	1738	5059
1	1736	5060
1	1736	5061
1	1734	5062
1	1726	5063
1	1714	5064
1	1710	5065
1	1699	5066
1	1685	5067
1	1674	5068
1	1661	5069
1	1660	5070
1	1670	5071
1	1686	5072
1	1707	5073
1	1720	5074
1	1736	5075
1	1747	5076
1	1762	5077
1	1770	5078
1	1778	5079
1	1787	5080
1	1788	5081
1	1779	5082
1	1773	5083
1	1764	5084
1	1748	5085
1	1740	5086
1	1734	5087
1	1728	5088
1	1717	5089
1	1710	5090
1	1699	5091
1	1688	5092
1	1679	5093
1	1662	5094
1	1660	5095
1	1668	5096
1	1682	5097
1	1707	5098
1	1726	5099
1	1742	5100
1	1760	5101
1	1773	5102
1	1775	5103
1	1770	5104
1	1764	5105
1	1757	5106
1	1753	5107
1	1749	5108
1	1729	5109
1	1716	5110
1	1701	5111
1	1692	5112
1	1692	5113
1	1687	5114
1	1686	5115
1	1686	5116
1	1691	5117
1	1700	5118
1	1713	5119
1	1737	5120
1	1749	5121
1	1757	5122
1	1764	5123
1	1766	5124
1	1764	5125
1	1755	5126
1	1741	5127
1	1729	5128
1	1712	5129
1	1697	5130
1	1683	5131
1	1675	5132
1	1664	5133
1	1661	5134
1	1677	5135
1	1697	5136
1	1712	5137
1	1726	5138
1	1733	5139
1	1739	5140
1	1742	5141
1	1740	5142
1	1749	5143
1	1749	5144
1	1743	5145
1	1735	5146
1	1726	5147
1	1718	5148
1	1715	5149
1	1715	5150
1	1717	5151
1	1721	5152
1	1725	5153
1	1721	5154
1	1718	5155
1	1719	5156
1	1725	5157
1	1743	5158
1	1764	5159
1	1786	5160
1	1792	5161
1	1796	5162
1	1795	5163
1	1791	5164
1	1782	5165
1	1776	5166
1	1765	5167
1	1760	5168
1	1747	5169
1	1738	5170
1	1734	5171
1	1728	5172
1	1737	5173
1	1738	5174
1	1743	5175
1	1757	5176
1	1775	5177
1	1786	5178
1	1777	5179
1	1768	5180
1	1757	5181
1	1746	5182
1	1730	5183
1	1708	5184
1	1696	5185
1	1688	5186
1	1686	5187
1	1686	5188
1	1682	5189
1	1689	5190
1	1706	5191
1	1724	5192
1	1738	5193
1	1748	5194
1	1762	5195
1	1773	5196
1	1791	5197
1	1808	5198
1	1813	5199
1	1815	5200
1	1815	5201
1	1817	5202
1	1829	5203
1	1831	5204
1	1821	5205
1	1809	5206
1	1791	5207
1	1781	5208
1	1766	5209
1	1762	5210
1	1755	5211
1	1754	5212
1	1755	5213
1	1751	5214
1	1751	5215
1	1760	5216
1	1772	5217
1	1791	5218
1	1791	5219
1	1775	5220
1	1746	5221
1	1727	5222
1	1710	5223
1	1679	5224
1	1652	5225
1	1635	5226
1	1628	5227
1	1626	5228
1	1629	5229
1	1638	5230
1	1652	5231
1	1670	5232
1	1686	5233
1	1703	5234
1	1712	5235
1	1718	5236
1	1738	5237
1	1755	5238
1	1777	5239
1	1801	5240
1	1829	5241
1	1843	5242
1	1849	5243
1	1841	5244
1	1817	5245
1	1782	5246
1	1746	5247
1	1715	5248
1	1690	5249
1	1682	5250
1	1677	5251
1	1679	5252
1	1686	5253
1	1697	5254
1	1713	5255
1	1731	5256
1	1750	5257
1	1766	5258
1	1777	5259
1	1786	5260
1	1790	5261
1	1788	5262
1	1783	5263
1	1777	5264
1	1778	5265
1	1765	5266
1	1754	5267
1	1742	5268
1	1728	5269
1	1716	5270
1	1710	5271
1	1705	5272
1	1706	5273
1	1705	5274
1	1712	5275
1	1726	5276
1	1741	5277
1	1760	5278
1	1768	5279
1	1778	5280
1	1788	5281
1	1787	5282
1	1778	5283
1	1764	5284
1	1748	5285
1	1736	5286
1	1724	5287
1	1712	5288
1	1698	5289
1	1695	5290
1	1693	5291
1	1697	5292
1	1712	5293
1	1720	5294
1	1731	5295
1	1736	5296
1	1734	5297
1	1733	5298
1	1737	5299
1	1738	5300
1	1739	5301
1	1742	5302
1	1747	5303
1	1738	5304
1	1722	5305
1	1702	5306
1	1693	5307
1	1693	5308
1	1688	5309
1	1683	5310
1	1674	5311
1	1661	5312
1	1657	5313
1	1649	5314
1	1647	5315
1	1652	5316
1	1670	5317
1	1692	5318
1	1710	5319
1	1725	5320
1	1737	5321
1	1739	5322
1	1738	5323
1	1734	5324
1	1712	5325
1	1684	5326
1	1664	5327
1	1643	5328
1	1623	5329
1	1616	5330
1	1611	5331
1	1611	5332
1	1616	5333
1	1629	5334
1	1645	5335
1	1660	5336
1	1674	5337
1	1688	5338
1	1706	5339
1	1710	5340
1	1711	5341
1	1699	5342
1	1683	5343
1	1652	5344
1	1611	5345
1	1573	5346
1	1542	5347
1	1530	5348
1	1532	5349
1	1551	5350
1	1581	5351
1	1611	5352
1	1651	5353
1	1679	5354
1	1701	5355
1	1718	5356
1	1734	5357
1	1751	5358
1	1764	5359
1	1774	5360
1	1774	5361
1	1765	5362
1	1760	5363
1	1745	5364
1	1733	5365
1	1724	5366
1	1713	5367
1	1712	5368
1	1698	5369
1	1685	5370
1	1678	5371
1	1677	5372
1	1676	5373
1	1679	5374
1	1685	5375
1	1692	5376
1	1703	5377
1	1712	5378
1	1714	5379
1	1728	5380
1	1735	5381
1	1730	5382
1	1724	5383
1	1712	5384
1	1699	5385
1	1688	5386
1	1679	5387
1	1677	5388
1	1682	5389
1	1689	5390
1	1707	5391
1	1736	5392
1	1767	5393
1	1792	5394
1	1817	5395
1	1828	5396
1	1826	5397
1	1819	5398
1	1799	5399
1	1777	5400
1	1755	5401
1	1742	5402
1	1729	5403
1	1715	5404
1	1710	5405
1	1710	5406
1	1715	5407
1	1728	5408
1	1736	5409
1	1746	5410
1	1757	5411
1	1763	5412
1	1769	5413
1	1773	5414
1	1769	5415
1	1764	5416
1	1760	5417
1	1747	5418
1	1733	5419
1	1715	5420
1	1686	5421
1	1674	5422
1	1654	5423
1	1639	5424
1	1631	5425
1	1629	5426
1	1634	5427
1	1649	5428
1	1670	5429
1	1693	5430
1	1723	5431
1	1756	5432
1	1781	5433
1	1798	5434
1	1812	5435
1	1816	5436
1	1816	5437
1	1817	5438
1	1811	5439
1	1811	5440
1	1802	5441
1	1794	5442
1	1791	5443
1	1779	5444
1	1764	5445
1	1751	5446
1	1737	5447
1	1728	5448
1	1715	5449
1	1706	5450
1	1688	5451
1	1661	5452
1	1621	5453
1	1572	5454
1	1518	5455
1	1458	5456
1	1395	5457
1	1337	5458
1	1285	5459
1	1241	5460
1	1206	5461
1	1177	5462
1	1153	5463
1	1134	5464
1	1119	5465
1	1123	5466
1	1140	5467
1	1171	5468
1	1204	5469
1	1242	5470
1	1282	5471
1	1320	5472
1	1368	5473
1	1419	5474
1	1476	5475
1	1539	5476
1	1607	5477
1	1674	5478
1	1734	5479
1	1782	5480
1	1832	5481
1	1875	5482
1	1911	5483
1	1939	5484
1	1960	5485
1	1974	5486
1	1992	5487
1	2012	5488
1	2025	5489
1	2036	5490
1	2052	5491
1	2078	5492
1	2101	5493
1	2119	5494
1	2124	5495
1	2113	5496
1	2090	5497
1	2061	5498
1	2025	5499
1	1989	5500
1	1949	5501
1	1906	5502
1	1863	5503
1	1823	5504
1	1788	5505
1	1764	5506
1	1754	5507
1	1752	5508
1	1751	5509
1	1750	5510
1	1752	5511
1	1762	5512
1	1765	5513
1	1762	5514
1	1755	5515
1	1754	5516
1	1752	5517
1	1757	5518
1	1757	5519
1	1757	5520
1	1756	5521
1	1746	5522
1	1738	5523
1	1714	5524
1	1690	5525
1	1664	5526
1	1643	5527
1	1632	5528
1	1628	5529
1	1631	5530
1	1634	5531
1	1647	5532
1	1664	5533
1	1686	5534
1	1710	5535
1	1731	5536
1	1759	5537
1	1776	5538
1	1794	5539
1	1814	5540
1	1826	5541
1	1824	5542
1	1816	5543
1	1782	5544
1	1751	5545
1	1719	5546
1	1685	5547
1	1656	5548
1	1623	5549
1	1595	5550
1	1581	5551
1	1576	5552
1	1581	5553
1	1597	5554
1	1618	5555
1	1645	5556
1	1674	5557
1	1704	5558
1	1725	5559
1	1744	5560
1	1762	5561
1	1765	5562
1	1773	5563
1	1764	5564
1	1752	5565
1	1739	5566
1	1729	5567
1	1707	5568
1	1686	5569
1	1677	5570
1	1674	5571
1	1681	5572
1	1688	5573
1	1695	5574
1	1707	5575
1	1716	5576
1	1726	5577
1	1741	5578
1	1752	5579
1	1752	5580
1	1760	5581
1	1751	5582
1	1738	5583
1	1723	5584
1	1706	5585
1	1687	5586
1	1665	5587
1	1647	5588
1	1626	5589
1	1619	5590
1	1620	5591
1	1622	5592
1	1643	5593
1	1661	5594
1	1680	5595
1	1692	5596
1	1699	5597
1	1706	5598
1	1715	5599
1	1722	5600
1	1727	5601
1	1720	5602
1	1711	5603
1	1694	5604
1	1683	5605
1	1679	5606
1	1677	5607
1	1679	5608
1	1675	5609
1	1670	5610
1	1665	5611
1	1660	5612
1	1654	5613
1	1652	5614
1	1651	5615
1	1649	5616
1	1656	5617
1	1670	5618
1	1683	5619
1	1694	5620
1	1700	5621
1	1701	5622
1	1697	5623
1	1700	5624
1	1688	5625
1	1678	5626
1	1672	5627
1	1657	5628
1	1634	5629
1	1615	5630
1	1594	5631
1	1581	5632
1	1575	5633
1	1570	5634
1	1576	5635
1	1582	5636
1	1594	5637
1	1607	5638
1	1616	5639
1	1623	5640
1	1625	5641
1	1628	5642
1	1618	5643
1	1604	5644
1	1589	5645
1	1581	5646
1	1589	5647
1	1593	5648
1	1590	5649
1	1590	5650
1	1598	5651
1	1607	5652
1	1620	5653
1	1629	5654
1	1634	5655
1	1642	5656
1	1647	5657
1	1643	5658
1	1644	5659
1	1645	5660
1	1646	5661
1	1639	5662
1	1621	5663
1	1590	5664
1	1557	5665
1	1534	5666
1	1514	5667
1	1503	5668
1	1491	5669
1	1481	5670
1	1473	5671
1	1471	5672
1	1474	5673
1	1478	5674
1	1490	5675
1	1503	5676
1	1525	5677
1	1543	5678
1	1554	5679
1	1518	5700
1	1524	5701
1	1529	5702
1	1529	5703
1	1521	5704
1	1511	5705
1	1503	5706
1	1500	5707
1	1499	5708
1	1490	5709
1	1489	5710
1	1495	5711
1	1503	5712
1	1504	5713
1	1495	5714
1	1489	5715
1	1489	5716
1	1487	5717
1	1484	5718
1	1481	5719
1	1567	5680
1	1583	5681
1	1593	5682
1	1603	5683
1	1607	5684
1	1607	5685
1	1607	5686
1	1604	5687
1	1595	5688
1	1584	5689
1	1572	5690
1	1557	5691
1	1546	5692
1	1536	5693
1	1519	5694
1	1505	5695
1	1497	5696
1	1498	5697
1	1506	5698
1	1508	5699
1	1488	5720
1	1500	5721
1	1504	5722
1	1519	5723
1	1530	5724
1	1530	5725
1	1526	5726
1	1521	5727
1	1518	5728
1	1515	5729
1	1508	5730
1	1508	5731
1	1512	5732
1	1507	5733
1	1503	5734
1	1503	5735
1	1503	5736
1	1512	5737
1	1519	5738
1	1521	5739
1	1530	5740
1	1535	5741
1	1534	5742
1	1530	5743
1	1525	5744
1	1517	5745
1	1508	5746
1	1503	5747
1	1497	5748
1	1488	5749
1	1479	5750
1	1476	5751
1	1471	5752
1	1476	5753
1	1475	5754
1	1481	5755
1	1491	5756
1	1503	5757
1	1519	5758
1	1529	5759
1	1540	5760
1	1548	5761
1	1555	5762
1	1555	5763
1	1555	5764
1	1553	5765
1	1551	5766
1	1549	5767
1	1547	5768
1	1546	5769
1	1553	5770
1	1566	5771
1	1589	5772
1	1620	5773
1	1641	5774
1	1660	5775
1	1674	5776
1	1681	5777
1	1692	5778
1	1695	5779
1	1684	5780
1	1670	5781
1	1649	5782
1	1633	5783
1	1607	5784
1	1583	5785
1	1564	5786
1	1555	5787
1	1561	5788
1	1567	5789
1	1579	5790
1	1584	5791
1	1598	5792
1	1618	5793
1	1641	5794
1	1661	5795
1	1686	5796
1	1707	5797
1	1726	5798
1	1737	5799
1	1738	5800
1	1736	5801
1	1723	5802
1	1715	5803
1	1703	5804
1	1688	5805
1	1674	5806
1	1660	5807
1	1654	5808
1	1651	5809
1	1649	5810
1	1644	5811
1	1647	5812
1	1647	5813
1	1638	5814
1	1631	5815
1	1616	5816
1	1607	5817
1	1608	5818
1	1618	5819
1	1633	5820
1	1642	5821
1	1652	5822
1	1674	5823
1	1686	5824
1	1692	5825
1	1693	5826
1	1688	5827
1	1681	5828
1	1668	5829
1	1661	5830
1	1661	5831
1	1662	5832
1	1663	5833
1	1660	5834
1	1660	5835
1	1660	5836
1	1669	5837
1	1682	5838
1	1699	5839
1	1723	5840
1	1742	5841
1	1755	5842
1	1764	5843
1	1751	5844
1	1742	5845
1	1724	5846
1	1701	5847
1	1686	5848
1	1668	5849
1	1657	5850
1	1651	5851
1	1651	5852
1	1659	5853
1	1676	5854
1	1691	5855
1	1701	5856
1	1710	5857
1	1712	5858
1	1706	5859
1	1629	5880
1	1647	5881
1	1670	5882
1	1681	5883
1	1685	5884
1	1685	5885
1	1683	5886
1	1676	5887
1	1667	5888
1	1652	5889
1	1643	5890
1	1636	5891
1	1634	5892
1	1645	5893
1	1654	5894
1	1670	5895
1	1684	5896
1	1693	5897
1	1705	5898
1	1728	5899
1	1701	5860
1	1698	5861
1	1694	5862
1	1693	5863
1	1686	5864
1	1678	5865
1	1678	5866
1	1683	5867
1	1680	5868
1	1674	5869
1	1660	5870
1	1643	5871
1	1625	5872
1	1605	5873
1	1583	5874
1	1573	5875
1	1569	5876
1	1569	5877
1	1584	5878
1	1607	5879
1	1746	5900
1	1754	5901
1	1754	5902
1	1746	5903
1	1721	5904
1	1692	5905
1	1662	5906
1	1634	5907
1	1618	5908
1	1608	5909
1	1607	5910
1	1605	5911
1	1605	5912
1	1607	5913
1	1616	5914
1	1626	5915
1	1639	5916
1	1660	5917
1	1685	5918
1	1699	5919
1	1708	5920
1	1704	5921
1	1690	5922
1	1675	5923
1	1669	5924
1	1647	5925
1	1634	5926
1	1629	5927
1	1617	5928
1	1609	5929
1	1607	5930
1	1607	5931
1	1609	5932
1	1621	5933
1	1629	5934
1	1634	5935
1	1642	5936
1	1643	5937
1	1645	5938
1	1643	5939
1	1638	5940
1	1643	5941
1	1652	5942
1	1655	5943
1	1648	5944
1	1647	5945
1	1647	5946
1	1647	5947
1	1643	5948
1	1634	5949
1	1633	5950
1	1632	5951
1	1633	5952
1	1636	5953
1	1639	5954
1	1644	5955
1	1647	5956
1	1657	5957
1	1672	5958
1	1690	5959
1	1670	5980
1	1669	5981
1	1661	5982
1	1658	5983
1	1647	5984
1	1636	5985
1	1634	5986
1	1631	5987
1	1629	5988
1	1625	5989
1	1623	5990
1	1621	5991
1	1622	5992
1	1622	5993
1	1634	5994
1	1647	5995
1	1661	5996
1	1675	5997
1	1698	5998
1	1712	5999
1	1700	5960
1	1704	5961
1	1699	5962
1	1698	5963
1	1692	5964
1	1680	5965
1	1665	5966
1	1652	5967
1	1644	5968
1	1634	5969
1	1625	5970
1	1618	5971
1	1613	5972
1	1615	5973
1	1621	5974
1	1634	5975
1	1645	5976
1	1656	5977
1	1663	5978
1	1664	5979
1	1724	6000
1	1733	6001
1	1738	6002
1	1742	6003
1	1744	6004
1	1745	6005
1	1744	6006
1	1746	6007
1	1740	6008
1	1734	6009
1	1717	6010
1	1699	6011
1	1677	6012
1	1660	6013
1	1638	6014
1	1626	6015
1	1625	6016
1	1626	6017
1	1633	6018
1	1642	6019
1	1651	6020
1	1660	6021
1	1656	6022
1	1647	6023
1	1636	6024
1	1623	6025
1	1607	6026
1	1596	6027
1	1592	6028
1	1590	6029
1	1595	6030
1	1602	6031
1	1619	6032
1	1629	6033
1	1630	6034
1	1628	6035
1	1626	6036
1	1631	6037
1	1644	6038
1	1662	6039
1	1686	6040
1	1705	6041
1	1718	6042
1	1733	6043
1	1724	6044
1	1710	6045
1	1686	6046
1	1661	6047
1	1636	6048
1	1616	6049
1	1602	6050
1	1600	6051
1	1610	6052
1	1620	6053
1	1629	6054
1	1634	6055
1	1639	6056
1	1654	6057
1	1677	6058
1	1695	6059
1	1713	6060
1	1727	6061
1	1734	6062
1	1731	6063
1	1723	6064
1	1703	6065
1	1685	6066
1	1665	6067
1	1647	6068
1	1634	6069
1	1621	6070
1	1611	6071
1	1612	6072
1	1620	6073
1	1626	6074
1	1636	6075
1	1652	6076
1	1662	6077
1	1665	6078
1	1671	6079
1	1670	6080
1	1660	6081
1	1655	6082
1	1648	6083
1	1646	6084
1	1643	6085
1	1643	6086
1	1647	6087
1	1664	6088
1	1680	6089
1	1694	6090
1	1711	6091
1	1715	6092
1	1714	6093
1	1713	6094
1	1711	6095
1	1709	6096
1	1705	6097
1	1695	6098
1	1692	6099
1	1686	6100
1	1676	6101
1	1665	6102
1	1664	6103
1	1657	6104
1	1646	6105
1	1636	6106
1	1631	6107
1	1625	6108
1	1616	6109
1	1609	6110
1	1609	6111
1	1621	6112
1	1631	6113
1	1638	6114
1	1649	6115
1	1665	6116
1	1682	6117
1	1692	6118
1	1691	6119
1	1686	6120
1	1682	6121
1	1674	6122
1	1660	6123
1	1659	6124
1	1661	6125
1	1675	6126
1	1688	6127
1	1701	6128
1	1710	6129
1	1712	6130
1	1713	6131
1	1723	6132
1	1727	6133
1	1724	6134
1	1720	6135
1	1712	6136
1	1708	6137
1	1698	6138
1	1691	6139
1	1685	6180
1	1690	6181
1	1698	6182
1	1695	6183
1	1684	6184
1	1675	6185
1	1670	6186
1	1660	6187
1	1646	6188
1	1639	6189
1	1642	6190
1	1638	6191
1	1634	6192
1	1635	6193
1	1636	6194
1	1638	6195
1	1646	6196
1	1650	6197
1	1647	6198
1	1647	6199
1	1683	6140
1	1663	6141
1	1648	6142
1	1626	6143
1	1616	6144
1	1609	6145
1	1615	6146
1	1626	6147
1	1643	6148
1	1655	6149
1	1662	6150
1	1667	6151
1	1665	6152
1	1669	6153
1	1670	6154
1	1673	6155
1	1672	6156
1	1682	6157
1	1689	6158
1	1705	6159
1	1719	6160
1	1731	6161
1	1731	6162
1	1731	6163
1	1721	6164
1	1708	6165
1	1691	6166
1	1679	6167
1	1670	6168
1	1663	6169
1	1657	6170
1	1646	6171
1	1634	6172
1	1618	6173
1	1610	6174
1	1607	6175
1	1613	6176
1	1632	6177
1	1657	6178
1	1673	6179
1	1647	6200
1	1644	6201
1	1641	6202
1	1626	6203
1	1611	6204
1	1602	6205
1	1587	6206
1	1574	6207
1	1564	6208
1	1555	6209
1	1551	6210
1	1553	6211
1	1555	6212
1	1557	6213
1	1571	6214
1	1584	6215
1	1598	6216
1	1617	6217
1	1633	6218
1	1647	6219
1	1662	6220
1	1668	6221
1	1664	6222
1	1655	6223
1	1642	6224
1	1613	6225
1	1590	6226
1	1574	6227
1	1551	6228
1	1537	6229
1	1532	6230
1	1542	6231
1	1562	6232
1	1587	6233
1	1612	6234
1	1641	6235
1	1674	6236
1	1712	6237
1	1747	6238
1	1773	6239
1	1791	6240
1	1791	6241
1	1787	6242
1	1763	6243
1	1734	6244
1	1697	6245
1	1661	6246
1	1634	6247
1	1603	6248
1	1589	6249
1	1580	6250
1	1572	6251
1	1574	6252
1	1594	6253
1	1615	6254
1	1641	6255
1	1670	6256
1	1700	6257
1	1730	6258
1	1760	6259
1	1787	6260
1	1809	6261
1	1823	6262
1	1832	6263
1	1843	6264
1	1854	6265
1	1854	6266
1	1843	6267
1	1822	6268
1	1796	6269
1	1773	6270
1	1751	6271
1	1737	6272
1	1719	6273
1	1707	6274
1	1702	6275
1	1701	6276
1	1701	6277
1	1693	6278
1	1691	6279
1	1687	6280
1	1678	6281
1	1665	6282
1	1657	6283
1	1642	6284
1	1629	6285
1	1620	6286
1	1623	6287
1	1631	6288
1	1641	6289
1	1658	6290
1	1675	6291
1	1689	6292
1	1692	6293
1	1700	6294
1	1711	6295
1	1718	6296
1	1730	6297
1	1746	6298
1	1752	6299
1	1757	6300
1	1764	6301
1	1767	6302
1	1769	6303
1	1772	6304
1	1766	6305
1	1763	6306
1	1757	6307
1	1750	6308
1	1744	6309
1	1745	6310
1	1751	6311
1	1757	6312
1	1769	6313
1	1778	6314
1	1788	6315
1	1796	6316
1	1814	6317
1	1822	6318
1	1825	6319
1	1816	6320
1	1789	6321
1	1739	6322
1	1685	6323
1	1612	6324
1	1548	6325
1	1489	6326
1	1432	6327
1	1377	6328
1	1328	6329
1	1286	6330
1	1240	6331
1	1200	6332
1	1174	6333
1	1157	6334
1	1152	6335
1	1161	6336
1	1175	6337
1	1197	6338
1	1217	6339
1	1247	6340
1	1273	6341
1	1293	6342
1	1323	6343
1	1350	6344
1	1384	6345
1	1427	6346
1	1472	6347
1	1526	6348
1	1584	6349
1	1647	6350
1	1708	6351
1	1767	6352
1	1838	6353
1	1886	6354
1	1935	6355
1	1973	6356
1	2010	6357
1	2051	6358
1	2079	6359
1	2105	6360
1	2121	6361
1	2128	6362
1	2123	6363
1	2106	6364
1	2082	6365
1	2052	6366
1	2019	6367
1	1978	6368
1	1949	6369
1	1920	6370
1	1895	6371
1	1872	6372
1	1862	6373
1	1849	6374
1	1832	6375
1	1813	6376
1	1798	6377
1	1791	6378
1	1789	6379
1	1788	6380
1	1782	6381
1	1765	6382
1	1751	6383
1	1728	6384
1	1701	6385
1	1674	6386
1	1649	6387
1	1634	6388
1	1625	6389
1	1631	6390
1	1647	6391
1	1672	6392
1	1701	6393
1	1733	6394
1	1756	6395
1	1777	6396
1	1796	6397
1	1802	6398
1	1809	6399
1	1814	6400
1	1813	6401
1	1809	6402
1	1803	6403
1	1791	6404
1	1776	6405
1	1762	6406
1	1744	6407
1	1726	6408
1	1708	6409
1	1692	6410
1	1686	6411
1	1686	6412
1	1683	6413
1	1687	6414
1	1694	6415
1	1701	6416
1	1712	6417
1	1734	6418
1	1748	6419
1	1762	6420
1	1769	6421
1	1774	6422
1	1757	6423
1	1747	6424
1	1727	6425
1	1703	6426
1	1682	6427
1	1660	6428
1	1643	6429
1	1634	6430
1	1629	6431
1	1634	6432
1	1644	6433
1	1656	6434
1	1674	6435
1	1695	6436
1	1723	6437
1	1742	6438
1	1764	6439
1	1779	6440
1	1791	6441
1	1790	6442
1	1764	6443
1	1744	6444
1	1713	6445
1	1686	6446
1	1660	6447
1	1647	6448
1	1639	6449
1	1636	6450
1	1639	6451
1	1647	6452
1	1660	6453
1	1674	6454
1	1687	6455
1	1701	6456
1	1715	6457
1	1721	6458
1	1726	6459
1	1734	6460
1	1734	6461
1	1729	6462
1	1729	6463
1	1718	6464
1	1708	6465
1	1696	6466
1	1685	6467
1	1673	6468
1	1660	6469
1	1655	6470
1	1651	6471
1	1654	6472
1	1652	6473
1	1660	6474
1	1669	6475
1	1673	6476
1	1681	6477
1	1691	6478
1	1698	6479
1	1700	6480
1	1705	6481
1	1712	6482
1	1714	6483
1	1710	6484
1	1699	6485
1	1690	6486
1	1688	6487
1	1683	6488
1	1678	6489
1	1677	6490
1	1686	6491
1	1701	6492
1	1725	6493
1	1742	6494
1	1754	6495
1	1764	6496
1	1762	6497
1	1749	6498
1	1734	6499
1	1721	6500
1	1706	6501
1	1687	6502
1	1662	6503
1	1648	6504
1	1638	6505
1	1634	6506
1	1633	6507
1	1630	6508
1	1620	6509
1	1618	6510
1	1620	6511
1	1628	6512
1	1639	6513
1	1659	6514
1	1676	6515
1	1697	6516
1	1715	6517
1	1728	6518
1	1736	6519
1	1683	6540
1	1687	6541
1	1679	6542
1	1662	6543
1	1645	6544
1	1625	6545
1	1607	6546
1	1587	6547
1	1563	6548
1	1548	6549
1	1528	6550
1	1508	6551
1	1490	6552
1	1484	6553
1	1478	6554
1	1481	6555
1	1485	6556
1	1499	6557
1	1512	6558
1	1530	6559
1	1738	6520
1	1735	6521
1	1724	6522
1	1713	6523
1	1705	6524
1	1686	6525
1	1669	6526
1	1655	6527
1	1634	6528
1	1626	6529
1	1622	6530
1	1618	6531
1	1615	6532
1	1613	6533
1	1618	6534
1	1624	6535
1	1631	6536
1	1638	6537
1	1656	6538
1	1670	6539
1	1553	6560
1	1575	6561
1	1595	6562
1	1608	6563
1	1622	6564
1	1634	6565
1	1635	6566
1	1636	6567
1	1629	6568
1	1616	6569
1	1594	6570
1	1573	6571
1	1553	6572
1	1542	6573
1	1531	6574
1	1521	6575
1	1508	6576
1	1504	6577
1	1505	6578
1	1512	6579
1	1521	6580
1	1530	6581
1	1543	6582
1	1566	6583
1	1580	6584
1	1587	6585
1	1590	6586
1	1595	6587
1	1607	6588
1	1610	6589
1	1607	6590
1	1602	6591
1	1592	6592
1	1577	6593
1	1572	6594
1	1570	6595
1	1568	6596
1	1569	6597
1	1579	6598
1	1581	6599
1	1592	6600
1	1598	6601
1	1600	6602
1	1594	6603
1	1584	6604
1	1567	6605
1	1548	6606
1	1529	6607
1	1506	6608
1	1499	6609
1	1494	6610
1	1489	6611
1	1488	6612
1	1502	6613
1	1513	6614
1	1529	6615
1	1541	6616
1	1555	6617
1	1563	6618
1	1581	6619
1	1600	6620
1	1619	6621
1	1632	6622
1	1641	6623
1	1646	6624
1	1641	6625
1	1629	6626
1	1621	6627
1	1611	6628
1	1603	6629
1	1596	6630
1	1591	6631
1	1593	6632
1	1595	6633
1	1609	6634
1	1633	6635
1	1657	6636
1	1677	6637
1	1691	6638
1	1701	6639
1	1798	6660
1	1814	6661
1	1817	6662
1	1815	6663
1	1803	6664
1	1801	6665
1	1796	6666
1	1791	6667
1	1765	6668
1	1751	6669
1	1733	6670
1	1715	6671
1	1708	6672
1	1711	6673
1	1715	6674
1	1726	6675
1	1738	6676
1	1756	6677
1	1783	6678
1	1809	6679
1	1708	6640
1	1701	6641
1	1685	6642
1	1670	6643
1	1655	6644
1	1643	6645
1	1630	6646
1	1616	6647
1	1608	6648
1	1607	6649
1	1610	6650
1	1632	6651
1	1659	6652
1	1686	6653
1	1708	6654
1	1731	6655
1	1752	6656
1	1765	6657
1	1782	6658
1	1791	6659
1	1815	6680
1	1813	6681
1	1809	6682
1	1807	6683
1	1795	6684
1	1791	6685
1	1786	6686
1	1783	6687
1	1791	6688
1	1791	6689
1	1778	6690
1	1769	6691
1	1764	6692
1	1765	6693
1	1769	6694
1	1772	6695
1	1777	6696
1	1787	6697
1	1792	6698
1	1809	6699
1	1825	6700
1	1832	6701
1	1823	6702
1	1814	6703
1	1791	6704
1	1763	6705
1	1740	6706
1	1731	6707
1	1724	6708
1	1714	6709
1	1697	6710
1	1682	6711
1	1674	6712
1	1673	6713
1	1677	6714
1	1683	6715
1	1682	6716
1	1687	6717
1	1706	6718
1	1726	6719
1	1749	6720
1	1766	6721
1	1782	6722
1	1782	6723
1	1779	6724
1	1770	6725
1	1760	6726
1	1752	6727
1	1751	6728
1	1751	6729
1	1751	6730
1	1752	6731
1	1763	6732
1	1780	6733
1	1795	6734
1	1818	6735
1	1841	6736
1	1863	6737
1	1871	6738
1	1880	6739
1	1821	6760
1	1841	6761
1	1850	6762
1	1859	6763
1	1852	6764
1	1835	6765
1	1814	6766
1	1789	6767
1	1766	6768
1	1753	6769
1	1741	6770
1	1732	6771
1	1723	6772
1	1715	6773
1	1713	6774
1	1713	6775
1	1716	6776
1	1720	6777
1	1737	6778
1	1750	6779
1	1874	6740
1	1860	6741
1	1844	6742
1	1819	6743
1	1800	6744
1	1782	6745
1	1765	6746
1	1754	6747
1	1747	6748
1	1754	6749
1	1754	6750
1	1753	6751
1	1753	6752
1	1754	6753
1	1764	6754
1	1777	6755
1	1791	6756
1	1798	6757
1	1795	6758
1	1801	6759
1	1752	6780
1	1765	6781
1	1769	6782
1	1769	6783
1	1764	6784
1	1760	6785
1	1754	6786
1	1751	6787
1	1740	6788
1	1738	6789
1	1737	6790
1	1736	6791
1	1736	6792
1	1741	6793
1	1741	6794
1	1749	6795
1	1757	6796
1	1764	6797
1	1777	6798
1	1788	6799
1	1793	6800
1	1794	6801
1	1789	6802
1	1764	6803
1	1747	6804
1	1733	6805
1	1721	6806
1	1712	6807
1	1706	6808
1	1691	6809
1	1682	6810
1	1682	6811
1	1689	6812
1	1703	6813
1	1728	6814
1	1750	6815
1	1764	6816
1	1778	6817
1	1782	6818
1	1790	6819
1	1791	6820
1	1791	6821
1	1778	6822
1	1764	6823
1	1763	6824
1	1754	6825
1	1754	6826
1	1764	6827
1	1762	6828
1	1763	6829
1	1764	6830
1	1769	6831
1	1779	6832
1	1788	6833
1	1791	6834
1	1792	6835
1	1792	6836
1	1796	6837
1	1800	6838
1	1795	6839
1	1791	6840
1	1782	6841
1	1764	6842
1	1746	6843
1	1728	6844
1	1710	6845
1	1695	6846
1	1686	6847
1	1679	6848
1	1677	6849
1	1674	6850
1	1665	6851
1	1657	6852
1	1656	6853
1	1660	6854
1	1665	6855
1	1672	6856
1	1682	6857
1	1692	6858
1	1708	6859
1	1719	6860
1	1736	6861
1	1752	6862
1	1773	6863
1	1784	6864
1	1791	6865
1	1782	6866
1	1767	6867
1	1757	6868
1	1738	6869
1	1721	6870
1	1710	6871
1	1701	6872
1	1699	6873
1	1690	6874
1	1686	6875
1	1688	6876
1	1699	6877
1	1714	6878
1	1730	6879
1	1751	6880
1	1764	6881
1	1766	6882
1	1760	6883
1	1756	6884
1	1739	6885
1	1717	6886
1	1699	6887
1	1688	6888
1	1688	6889
1	1698	6890
1	1708	6891
1	1718	6892
1	1734	6893
1	1739	6894
1	1746	6895
1	1744	6896
1	1737	6897
1	1734	6898
1	1737	6899
1	1749	6900
1	1762	6901
1	1764	6902
1	1753	6903
1	1742	6904
1	1726	6905
1	1711	6906
1	1697	6907
1	1677	6908
1	1668	6909
1	1661	6910
1	1664	6911
1	1682	6912
1	1704	6913
1	1736	6914
1	1755	6915
1	1764	6916
1	1764	6917
1	1760	6918
1	1755	6919
1	1709	6940
1	1701	6941
1	1699	6942
1	1702	6943
1	1695	6944
1	1683	6945
1	1672	6946
1	1660	6947
1	1652	6948
1	1647	6949
1	1649	6950
1	1652	6951
1	1659	6952
1	1663	6953
1	1674	6954
1	1692	6955
1	1707	6956
1	1724	6957
1	1751	6958
1	1773	6959
1	1791	6960
1	1801	6961
1	1799	6962
1	1789	6963
1	1766	6964
1	1738	6965
1	1711	6966
1	1681	6967
1	1641	6968
1	1625	6969
1	1616	6970
1	1616	6971
1	1626	6972
1	1647	6973
1	1669	6974
1	1692	6975
1	1712	6976
1	1731	6977
1	1742	6978
1	1760	6979
1	1740	6920
1	1733	6921
1	1724	6922
1	1724	6923
1	1726	6924
1	1728	6925
1	1733	6926
1	1738	6927
1	1747	6928
1	1752	6929
1	1764	6930
1	1769	6931
1	1782	6932
1	1782	6933
1	1778	6934
1	1773	6935
1	1760	6936
1	1749	6937
1	1729	6938
1	1716	6939
1	1775	6980
1	1791	6981
1	1801	6982
1	1803	6983
1	1793	6984
1	1782	6985
1	1760	6986
1	1736	6987
1	1713	6988
1	1688	6989
1	1675	6990
1	1672	6991
1	1679	6992
1	1686	6993
1	1697	6994
1	1701	6995
1	1700	6996
1	1700	6997
1	1699	6998
1	1710	6999
1	1715	7000
1	1723	7001
1	1728	7002
1	1737	7003
1	1736	7004
1	1731	7005
1	1727	7006
1	1727	7007
1	1724	7008
1	1715	7009
1	1705	7010
1	1698	7011
1	1699	7012
1	1707	7013
1	1713	7014
1	1722	7015
1	1722	7016
1	1721	7017
1	1724	7018
1	1726	7019
1	1726	7020
1	1729	7021
1	1726	7022
1	1716	7023
1	1712	7024
1	1701	7025
1	1688	7026
1	1677	7027
1	1667	7028
1	1667	7029
1	1664	7030
1	1660	7031
1	1656	7032
1	1655	7033
1	1652	7034
1	1662	7035
1	1679	7036
1	1699	7037
1	1711	7038
1	1724	7039
1	1729	7040
1	1737	7041
1	1740	7042
1	1739	7043
1	1738	7044
1	1737	7045
1	1734	7046
1	1721	7047
1	1714	7048
1	1705	7049
1	1690	7050
1	1679	7051
1	1661	7052
1	1647	7053
1	1639	7054
1	1634	7055
1	1634	7056
1	1631	7057
1	1623	7058
1	1626	7059
1	1638	7060
1	1656	7061
1	1664	7062
1	1671	7063
1	1667	7064
1	1664	7065
1	1661	7066
1	1664	7067
1	1670	7068
1	1669	7069
1	1661	7070
1	1659	7071
1	1657	7072
1	1647	7073
1	1642	7074
1	1634	7075
1	1634	7076
1	1634	7077
1	1638	7078
1	1634	7079
1	1647	7100
1	1634	7101
1	1628	7102
1	1627	7103
1	1634	7104
1	1646	7105
1	1658	7106
1	1668	7107
1	1680	7108
1	1691	7109
1	1699	7110
1	1708	7111
1	1711	7112
1	1712	7113
1	1712	7114
1	1712	7115
1	1707	7116
1	1704	7117
1	1699	7118
1	1698	7119
1	1634	7080
1	1637	7081
1	1645	7082
1	1645	7083
1	1634	7084
1	1618	7085
1	1597	7086
1	1577	7087
1	1557	7088
1	1552	7089
1	1553	7090
1	1567	7091
1	1589	7092
1	1607	7093
1	1634	7094
1	1647	7095
1	1656	7096
1	1656	7097
1	1659	7098
1	1657	7099
1	1701	7120
1	1706	7121
1	1714	7122
1	1721	7123
1	1733	7124
1	1728	7125
1	1728	7126
1	1730	7127
1	1724	7128
1	1715	7129
1	1700	7130
1	1675	7131
1	1652	7132
1	1638	7133
1	1636	7134
1	1646	7135
1	1657	7136
1	1664	7137
1	1673	7138
1	1677	7139
1	1680	7140
1	1689	7141
1	1690	7142
1	1693	7143
1	1688	7144
1	1685	7145
1	1673	7146
1	1660	7147
1	1638	7148
1	1626	7149
1	1607	7150
1	1596	7151
1	1595	7152
1	1606	7153
1	1627	7154
1	1648	7155
1	1677	7156
1	1710	7157
1	1736	7158
1	1755	7159
1	1772	7160
1	1785	7161
1	1788	7162
1	1782	7163
1	1777	7164
1	1769	7165
1	1762	7166
1	1759	7167
1	1755	7168
1	1760	7169
1	1751	7170
1	1746	7171
1	1742	7172
1	1751	7173
1	1764	7174
1	1778	7175
1	1787	7176
1	1790	7177
1	1787	7178
1	1781	7179
1	1770	7180
1	1751	7181
1	1729	7182
1	1709	7183
1	1692	7184
1	1673	7185
1	1661	7186
1	1660	7187
1	1660	7188
1	1660	7189
1	1661	7190
1	1660	7191
1	1659	7192
1	1648	7193
1	1643	7194
1	1631	7195
1	1613	7196
1	1595	7197
1	1570	7198
1	1543	7199
1	1503	7200
1	1451	7201
1	1398	7202
1	1342	7203
1	1293	7204
1	1243	7205
1	1196	7206
1	1155	7207
1	1124	7208
1	1096	7209
1	1084	7210
1	1084	7211
1	1099	7212
1	1127	7213
1	1166	7214
1	1205	7215
1	1243	7216
1	1292	7217
1	1337	7218
1	1397	7219
1	2038	7240
1	2032	7241
1	2011	7242
1	1974	7243
1	1940	7244
1	1897	7245
1	1860	7246
1	1829	7247
1	1798	7248
1	1776	7249
1	1759	7250
1	1747	7251
1	1739	7252
1	1738	7253
1	1729	7254
1	1731	7255
1	1737	7256
1	1740	7257
1	1748	7258
1	1757	7259
1	1450	7220
1	1485	7221
1	1508	7222
1	1538	7223
1	1579	7224
1	1625	7225
1	1679	7226
1	1741	7227
1	1814	7228
1	1868	7229
1	1914	7230
1	1948	7231
1	1981	7232
1	2001	7233
1	2014	7234
1	2026	7235
1	2035	7236
1	2042	7237
1	2042	7238
1	2037	7239
1	1760	7260
1	1760	7261
1	1743	7262
1	1723	7263
1	1692	7264
1	1664	7265
1	1638	7266
1	1620	7267
1	1607	7268
1	1602	7269
1	1607	7270
1	1616	7271
1	1631	7272
1	1647	7273
1	1668	7274
1	1683	7275
1	1686	7276
1	1688	7277
1	1688	7278
1	1692	7279
1	1713	7300
1	1710	7301
1	1702	7302
1	1692	7303
1	1692	7304
1	1690	7305
1	1693	7306
1	1698	7307
1	1701	7308
1	1704	7309
1	1698	7310
1	1686	7311
1	1674	7312
1	1661	7313
1	1643	7314
1	1634	7315
1	1631	7316
1	1629	7317
1	1637	7318
1	1659	7319
1	1688	7280
1	1685	7281
1	1679	7282
1	1670	7283
1	1654	7284
1	1638	7285
1	1623	7286
1	1606	7287
1	1590	7288
1	1583	7289
1	1575	7290
1	1568	7291
1	1570	7292
1	1575	7293
1	1587	7294
1	1608	7295
1	1642	7296
1	1674	7297
1	1699	7298
1	1711	7299
1	1680	7320
1	1691	7321
1	1692	7322
1	1686	7323
1	1680	7324
1	1674	7325
1	1669	7326
1	1662	7327
1	1659	7328
1	1652	7329
1	1646	7330
1	1641	7331
1	1641	7332
1	1647	7333
1	1645	7334
1	1643	7335
1	1638	7336
1	1635	7337
1	1642	7338
1	1645	7339
1	1647	7340
1	1641	7341
1	1629	7342
1	1615	7343
1	1595	7344
1	1587	7345
1	1581	7346
1	1579	7347
1	1581	7348
1	1592	7349
1	1602	7350
1	1613	7351
1	1633	7352
1	1649	7353
1	1665	7354
1	1679	7355
1	1686	7356
1	1692	7357
1	1700	7358
1	1699	7359
1	1697	7360
1	1691	7361
1	1682	7362
1	1668	7363
1	1659	7364
1	1644	7365
1	1631	7366
1	1616	7367
1	1603	7368
1	1590	7369
1	1581	7370
1	1574	7371
1	1577	7372
1	1584	7373
1	1593	7374
1	1605	7375
1	1621	7376
1	1633	7377
1	1642	7378
1	1657	7379
1	1661	7380
1	1659	7381
1	1651	7382
1	1633	7383
1	1611	7384
1	1602	7385
1	1599	7386
1	1600	7387
1	1602	7388
1	1589	7389
1	1584	7390
1	1581	7391
1	1581	7392
1	1584	7393
1	1598	7394
1	1608	7395
1	1626	7396
1	1643	7397
1	1656	7398
1	1658	7399
1	1651	7400
1	1643	7401
1	1634	7402
1	1631	7403
1	1621	7404
1	1618	7405
1	1611	7406
1	1607	7407
1	1593	7408
1	1583	7409
1	1571	7410
1	1555	7411
1	1546	7412
1	1543	7413
1	1547	7414
1	1555	7415
1	1566	7416
1	1582	7417
1	1602	7418
1	1613	7419
1	1634	7420
1	1649	7421
1	1656	7422
1	1653	7423
1	1652	7424
1	1627	7425
1	1607	7426
1	1594	7427
1	1569	7428
1	1547	7429
1	1529	7430
1	1514	7431
1	1502	7432
1	1498	7433
1	1503	7434
1	1516	7435
1	1535	7436
1	1561	7437
1	1590	7438
1	1602	7439
1	1602	7440
1	1587	7441
1	1575	7442
1	1557	7443
1	1549	7444
1	1542	7445
1	1530	7446
1	1518	7447
1	1507	7448
1	1495	7449
1	1490	7450
1	1494	7451
1	1503	7452
1	1513	7453
1	1528	7454
1	1536	7455
1	1551	7456
1	1574	7457
1	1596	7458
1	1607	7459
1	1613	7460
1	1616	7461
1	1618	7462
1	1610	7463
1	1595	7464
1	1574	7465
1	1553	7466
1	1527	7467
1	1507	7468
1	1494	7469
1	1482	7470
1	1476	7471
1	1482	7472
1	1491	7473
1	1505	7474
1	1523	7475
1	1538	7476
1	1555	7477
1	1570	7478
1	1581	7479
1	1593	7480
1	1602	7481
1	1605	7482
1	1602	7483
1	1603	7484
1	1593	7485
1	1574	7486
1	1555	7487
1	1544	7488
1	1535	7489
1	1530	7490
1	1531	7491
1	1542	7492
1	1553	7493
1	1558	7494
1	1569	7495
1	1580	7496
1	1589	7497
1	1598	7498
1	1608	7499
1	1620	7500
1	1634	7501
1	1648	7502
1	1658	7503
1	1658	7504
1	1643	7505
1	1628	7506
1	1616	7507
1	1607	7508
1	1581	7509
1	1560	7510
1	1544	7511
1	1536	7512
1	1534	7513
1	1543	7514
1	1550	7515
1	1562	7516
1	1581	7517
1	1607	7518
1	1634	7519
1	1749	7540
1	1764	7541
1	1775	7542
1	1780	7543
1	1783	7544
1	1773	7545
1	1762	7546
1	1751	7547
1	1744	7548
1	1738	7549
1	1727	7550
1	1717	7551
1	1712	7552
1	1708	7553
1	1699	7554
1	1690	7555
1	1679	7556
1	1664	7557
1	1658	7558
1	1661	7559
1	1661	7520
1	1688	7521
1	1704	7522
1	1712	7523
1	1712	7524
1	1705	7525
1	1697	7526
1	1692	7527
1	1693	7528
1	1692	7529
1	1699	7530
1	1706	7531
1	1712	7532
1	1723	7533
1	1723	7534
1	1725	7535
1	1729	7536
1	1738	7537
1	1742	7538
1	1739	7539
1	1759	7580
1	1762	7581
1	1764	7582
1	1764	7583
1	1749	7584
1	1737	7585
1	1724	7586
1	1715	7587
1	1712	7588
1	1718	7589
1	1728	7590
1	1743	7591
1	1764	7592
1	1782	7593
1	1799	7594
1	1815	7595
1	1819	7596
1	1827	7597
1	1831	7598
1	1825	7599
1	1672	7560
1	1692	7561
1	1714	7562
1	1738	7563
1	1755	7564
1	1766	7565
1	1774	7566
1	1773	7567
1	1765	7568
1	1754	7569
1	1747	7570
1	1741	7571
1	1737	7572
1	1736	7573
1	1744	7574
1	1749	7575
1	1749	7576
1	1751	7577
1	1752	7578
1	1755	7579
1	1823	7600
1	1816	7601
1	1793	7602
1	1772	7603
1	1753	7604
1	1733	7605
1	1712	7606
1	1697	7607
1	1685	7608
1	1672	7609
1	1660	7610
1	1654	7611
1	1652	7612
1	1668	7613
1	1687	7614
1	1718	7615
1	1747	7616
1	1777	7617
1	1808	7618
1	1830	7619
1	1841	7620
1	1843	7621
1	1835	7622
1	1814	7623
1	1780	7624
1	1755	7625
1	1737	7626
1	1722	7627
1	1706	7628
1	1695	7629
1	1686	7630
1	1680	7631
1	1679	7632
1	1683	7633
1	1683	7634
1	1688	7635
1	1699	7636
1	1707	7637
1	1714	7638
1	1717	7639
1	1723	7640
1	1726	7641
1	1715	7642
1	1702	7643
1	1686	7644
1	1680	7645
1	1682	7646
1	1686	7647
1	1685	7648
1	1688	7649
1	1687	7650
1	1686	7651
1	1690	7652
1	1699	7653
1	1718	7654
1	1738	7655
1	1754	7656
1	1764	7657
1	1778	7658
1	1783	7659
1	1795	7660
1	1803	7661
1	1800	7662
1	1791	7663
1	1785	7664
1	1765	7665
1	1751	7666
1	1738	7667
1	1728	7668
1	1720	7669
1	1714	7670
1	1711	7671
1	1707	7672
1	1705	7673
1	1700	7674
1	1703	7675
1	1705	7676
1	1705	7677
1	1711	7678
1	1725	7679
1	1739	7680
1	1751	7681
1	1759	7682
1	1760	7683
1	1760	7684
1	1755	7685
1	1749	7686
1	1744	7687
1	1741	7688
1	1724	7689
1	1708	7690
1	1687	7691
1	1668	7692
1	1649	7693
1	1649	7694
1	1658	7695
1	1671	7696
1	1690	7697
1	1708	7698
1	1720	7699
1	1737	7700
1	1751	7701
1	1765	7702
1	1780	7703
1	1780	7704
1	1783	7705
1	1787	7706
1	1779	7707
1	1764	7708
1	1751	7709
1	1733	7710
1	1714	7711
1	1701	7712
1	1694	7713
1	1688	7714
1	1685	7715
1	1683	7716
1	1688	7717
1	1699	7718
1	1708	7719
1	1719	7720
1	1733	7721
1	1741	7722
1	1749	7723
1	1759	7724
1	1751	7725
1	1749	7726
1	1754	7727
1	1748	7728
1	1741	7729
1	1733	7730
1	1724	7731
1	1721	7732
1	1724	7733
1	1723	7734
1	1722	7735
1	1716	7736
1	1715	7737
1	1721	7738
1	1731	7739
1	1746	7740
1	1759	7741
1	1773	7742
1	1776	7743
1	1779	7744
1	1770	7745
1	1760	7746
1	1742	7747
1	1727	7748
1	1701	7749
1	1686	7750
1	1684	7751
1	1688	7752
1	1703	7753
1	1734	7754
1	1763	7755
1	1791	7756
1	1819	7757
1	1843	7758
1	1855	7759
1	1858	7760
1	1856	7761
1	1845	7762
1	1827	7763
1	1792	7764
1	1770	7765
1	1753	7766
1	1733	7767
1	1712	7768
1	1703	7769
1	1699	7770
1	1705	7771
1	1712	7772
1	1723	7773
1	1735	7774
1	1744	7775
1	1751	7776
1	1755	7777
1	1764	7778
1	1764	7779
1	1769	7780
1	1765	7781
1	1751	7782
1	1733	7783
1	1711	7784
1	1686	7785
1	1668	7786
1	1660	7787
1	1660	7788
1	1660	7789
1	1660	7790
1	1661	7791
1	1678	7792
1	1701	7793
1	1717	7794
1	1737	7795
1	1760	7796
1	1782	7797
1	1802	7798
1	1829	7799
1	1843	7800
1	1853	7801
1	1854	7802
1	1848	7803
1	1838	7804
1	1818	7805
1	1788	7806
1	1759	7807
1	1736	7808
1	1710	7809
1	1691	7810
1	1684	7811
1	1683	7812
1	1685	7813
1	1695	7814
1	1707	7815
1	1716	7816
1	1731	7817
1	1742	7818
1	1760	7819
1	1774	7820
1	1791	7821
1	1801	7822
1	1809	7823
1	1796	7824
1	1782	7825
1	1756	7826
1	1738	7827
1	1722	7828
1	1710	7829
1	1705	7830
1	1708	7831
1	1718	7832
1	1726	7833
1	1737	7834
1	1755	7835
1	1783	7836
1	1814	7837
1	1832	7838
1	1831	7839
1	1821	7840
1	1800	7841
1	1777	7842
1	1746	7843
1	1728	7844
1	1701	7845
1	1684	7846
1	1665	7847
1	1657	7848
1	1646	7849
1	1637	7850
1	1638	7851
1	1645	7852
1	1656	7853
1	1667	7854
1	1694	7855
1	1726	7856
1	1760	7857
1	1791	7858
1	1831	7859
1	1843	7860
1	1840	7861
1	1825	7862
1	1799	7863
1	1773	7864
1	1750	7865
1	1724	7866
1	1698	7867
1	1674	7868
1	1646	7869
1	1633	7870
1	1621	7871
1	1619	7872
1	1625	7873
1	1647	7874
1	1669	7875
1	1688	7876
1	1710	7877
1	1727	7878
1	1747	7879
1	1769	7880
1	1791	7881
1	1809	7882
1	1814	7883
1	1803	7884
1	1802	7885
1	1801	7886
1	1803	7887
1	1801	7888
1	1800	7889
1	1791	7890
1	1777	7891
1	1763	7892
1	1743	7893
1	1731	7894
1	1721	7895
1	1723	7896
1	1734	7897
1	1744	7898
1	1751	7899
1	1762	7900
1	1773	7901
1	1785	7902
1	1791	7903
1	1801	7904
1	1802	7905
1	1793	7906
1	1783	7907
1	1773	7908
1	1759	7909
1	1741	7910
1	1728	7911
1	1719	7912
1	1717	7913
1	1712	7914
1	1716	7915
1	1716	7916
1	1726	7917
1	1736	7918
1	1753	7919
1	1763	7920
1	1768	7921
1	1775	7922
1	1777	7923
1	1765	7924
1	1759	7925
1	1751	7926
1	1738	7927
1	1724	7928
1	1701	7929
1	1686	7930
1	1661	7931
1	1646	7932
1	1634	7933
1	1628	7934
1	1623	7935
1	1621	7936
1	1621	7937
1	1619	7938
1	1620	7939
1	1680	7960
1	1672	7961
1	1669	7962
1	1669	7963
1	1670	7964
1	1662	7965
1	1660	7966
1	1660	7967
1	1667	7968
1	1665	7969
1	1661	7970
1	1660	7971
1	1662	7972
1	1667	7973
1	1663	7974
1	1671	7975
1	1683	7976
1	1701	7977
1	1723	7978
1	1738	7979
1	1622	7940
1	1618	7941
1	1611	7942
1	1603	7943
1	1589	7944
1	1584	7945
1	1581	7946
1	1581	7947
1	1587	7948
1	1602	7949
1	1613	7950
1	1634	7951
1	1651	7952
1	1662	7953
1	1671	7954
1	1677	7955
1	1681	7956
1	1686	7957
1	1688	7958
1	1685	7959
1	1750	7980
1	1764	7981
1	1782	7982
1	1793	7983
1	1801	7984
1	1802	7985
1	1803	7986
1	1809	7987
1	1796	7988
1	1772	7989
1	1751	7990
1	1730	7991
1	1716	7992
1	1716	7993
1	1731	7994
1	1744	7995
1	1764	7996
1	1782	7997
1	1802	7998
1	1823	7999
1	1841	8000
1	1852	8000
1	1857	8002
1	1863	8003
1	1847	8004
1	1831	8005
1	1813	8006
1	1788	8007
1	1760	8008
1	1738	8009
1	1710	8010
1	1686	8011
1	1669	8012
1	1659	8013
1	1652	8013
1	1657	8015
1	1668	8016
1	1683	8016
1	1701	8018
1	1710	8019
1	1720	8020
1	1733	8021
1	1744	8022
1	1754	8023
1	1764	8024
1	1746	8025
1	1727	8026
1	1703	8027
1	1667	8028
1	1639	8029
1	1623	8029
1	1625	8031
1	1643	8032
1	1670	8032
1	1699	8034
1	1724	8035
1	1751	8036
1	1769	8037
1	1788	8038
1	1791	8039
1	1785	8040
1	1775	8041
1	1769	8042
1	1749	8043
1	1722	8044
1	1692	8045
1	1674	8045
1	1670	8047
1	1679	8048
1	1686	8048
1	1692	8050
1	1701	8051
1	1715	8052
1	1728	8053
1	1746	8054
1	1764	8055
1	1782	8056
1	1802	8057
1	1819	8058
1	1825	8059
1	1814	8060
1	1778	8061
1	1742	8061
1	1691	8063
1	1634	8064
1	1574	8064
1	1501	8066
1	1422	8067
1	1328	8068
1	1254	8069
1	1173	8070
1	1104	8071
1	1042	8072
1	997	8073
1	971	8074
1	957	8074
1	970	8076
1	1005	8077
1	1045	8077
1	1089	8079
1	1145	8080
1	1206	8080
1	1267	8082
1	1328	8083
1	1401	8084
1	1463	8085
1	1525	8086
1	1581	8087
1	1634	8088
1	1683	8089
1	1724	8090
1	1764	8090
1	1815	8092
1	1856	8093
1	1891	8093
1	1931	8095
1	1970	8096
1	2011	8096
1	2054	8098
1	2110	8099
1	2153	8100
1	2175	8101
1	2186	8102
1	2187	8103
1	2175	8104
1	2156	8105
1	2124	8106
1	2086	8106
1	2049	8108
1	2003	8109
1	1960	8109
1	1919	8111
1	1871	8112
1	1823	8113
1	1782	8114
1	1751	8115
1	1733	8116
1	1716	8117
1	1710	8118
1	1712	8119
1	1727	8140
1	1738	8141
1	1746	8141
1	1752	8143
1	1767	8144
1	1774	8145
1	1776	8146
1	1776	8147
1	1773	8148
1	1769	8149
1	1764	8150
1	1760	8151
1	1760	8152
1	1759	8153
1	1743	8154
1	1729	8154
1	1713	8156
1	1702	8157
1	1701	8157
1	1712	8159
1	1726	8120
1	1738	8121
1	1740	8122
1	1745	8122
1	1741	8124
1	1737	8125
1	1737	8125
1	1734	8127
1	1731	8128
1	1717	8129
1	1706	8130
1	1695	8131
1	1687	8132
1	1684	8133
1	1683	8134
1	1686	8135
1	1692	8136
1	1701	8137
1	1711	8138
1	1716	8138
1	1718	8160
1	1729	8161
1	1740	8162
1	1751	8163
1	1754	8164
1	1751	8165
1	1739	8166
1	1728	8167
1	1712	8168
1	1687	8169
1	1665	8170
1	1647	8170
1	1634	8172
1	1630	8173
1	1634	8173
1	1634	8175
1	1639	8176
1	1658	8177
1	1673	8178
1	1692	8179
1	1712	8180
1	1721	8181
1	1728	8182
1	1733	8183
1	1737	8184
1	1738	8185
1	1736	8186
1	1727	8186
1	1717	8188
1	1718	8189
1	1710	8189
1	1708	8191
1	1705	8192
1	1708	8193
1	1711	8194
1	1719	8195
1	1728	8196
1	1740	8197
1	1752	8198
1	1763	8199
1	1773	8200
1	1788	8201
1	1795	8202
1	1809	8203
1	1815	8204
1	1799	8205
1	1778	8206
1	1749	8207
1	1712	8208
1	1686	8209
1	1659	8210
1	1637	8211
1	1629	8212
1	1625	8213
1	1625	8214
1	1629	8215
1	1634	8216
1	1639	8217
1	1652	8218
1	1672	8219
1	1686	8220
1	1709	8221
1	1722	8222
1	1733	8223
1	1729	8224
1	1731	8225
1	1731	8226
1	1724	8227
1	1710	8228
1	1686	8229
1	1657	8230
1	1625	8231
1	1602	8232
1	1589	8233
1	1579	8234
1	1573	8235
1	1580	8236
1	1598	8237
1	1622	8238
1	1643	8239
1	1660	8240
1	1671	8241
1	1684	8242
1	1693	8243
1	1689	8244
1	1686	8245
1	1682	8246
1	1674	8247
1	1664	8248
1	1661	8249
1	1659	8250
1	1654	8251
1	1647	8252
1	1639	8253
1	1634	8254
1	1629	8255
1	1620	8256
1	1611	8257
1	1610	8258
1	1607	8259
1	1600	8260
1	1594	8261
1	1585	8262
1	1579	8263
1	1573	8264
1	1559	8265
1	1548	8266
1	1542	8267
1	1544	8268
1	1547	8269
1	1550	8270
1	1555	8271
1	1566	8272
1	1580	8273
1	1587	8274
1	1602	8275
1	1611	8276
1	1625	8277
1	1631	8278
1	1636	8279
1	1634	8280
1	1639	8281
1	1641	8282
1	1645	8283
1	1639	8284
1	1629	8285
1	1613	8286
1	1606	8287
1	1596	8288
1	1579	8289
1	1564	8290
1	1555	8291
1	1550	8292
1	1548	8293
1	1557	8294
1	1567	8295
1	1573	8296
1	1585	8297
1	1597	8298
1	1607	8299
1	1612	8300
1	1612	8301
1	1611	8302
1	1605	8303
1	1582	8304
1	1564	8305
1	1547	8306
1	1531	8307
1	1515	8308
1	1508	8309
1	1500	8310
1	1500	8311
1	1503	8312
1	1515	8313
1	1529	8314
1	1545	8315
1	1557	8316
1	1566	8317
1	1571	8318
1	1571	8319
1	1574	8320
1	1569	8321
1	1556	8322
1	1535	8323
1	1518	8324
1	1490	8325
1	1466	8326
1	1453	8327
1	1442	8328
1	1438	8329
1	1442	8330
1	1450	8331
1	1463	8332
1	1481	8333
1	1508	8334
1	1533	8335
1	1549	8336
1	1563	8337
1	1581	8338
1	1593	8339
1	1601	8340
1	1616	8341
1	1625	8342
1	1625	8343
1	1619	8344
1	1607	8345
1	1586	8346
1	1568	8347
1	1552	8348
1	1520	8349
1	1503	8350
1	1502	8351
1	1510	8352
1	1525	8353
1	1542	8354
1	1553	8355
1	1569	8356
1	1582	8357
1	1594	8358
1	1608	8359
1	1621	8360
1	1630	8361
1	1633	8362
1	1628	8363
1	1612	8364
1	1602	8365
1	1593	8366
1	1581	8367
1	1574	8368
1	1571	8369
1	1562	8370
1	1556	8371
1	1553	8372
1	1549	8373
1	1550	8374
1	1551	8375
1	1555	8376
1	1559	8377
1	1567	8378
1	1571	8379
1	1582	8380
1	1593	8381
1	1607	8382
1	1616	8383
1	1634	8384
1	1641	8385
1	1651	8386
1	1660	8387
1	1680	8388
1	1688	8389
1	1692	8390
1	1690	8391
1	1690	8392
1	1687	8393
1	1679	8394
1	1679	8395
1	1683	8396
1	1688	8397
1	1688	8398
1	1697	8399
1	1698	8400
1	1701	8401
1	1710	8402
1	1712	8403
1	1707	8404
1	1692	8405
1	1672	8406
1	1652	8407
1	1635	8408
1	1623	8409
1	1619	8410
1	1624	8411
1	1631	8412
1	1642	8413
1	1669	8414
1	1702	8415
1	1738	8416
1	1769	8417
1	1795	8418
1	1820	8419
1	1835	8420
1	1844	8421
1	1841	8422
1	1834	8423
1	1818	8424
1	1794	8425
1	1773	8426
1	1753	8427
1	1739	8428
1	1723	8429
1	1712	8430
1	1706	8431
1	1716	8432
1	1729	8433
1	1740	8434
1	1752	8435
1	1762	8436
1	1766	8437
1	1770	8438
1	1774	8439
1	1782	8440
1	1791	8441
1	1791	8442
1	1779	8443
1	1764	8444
1	1741	8445
1	1712	8446
1	1687	8447
1	1671	8448
1	1665	8449
1	1673	8450
1	1685	8451
1	1700	8452
1	1724	8453
1	1738	8454
1	1757	8455
1	1769	8456
1	1778	8457
1	1779	8458
1	1790	8459
1	1792	8460
1	1796	8461
1	1791	8462
1	1773	8463
1	1749	8464
1	1724	8465
1	1698	8466
1	1674	8467
1	1651	8468
1	1631	8469
1	1621	8470
1	1618	8471
1	1622	8472
1	1634	8473
1	1652	8474
1	1674	8475
1	1695	8476
1	1717	8477
1	1737	8478
1	1750	8479
1	1759	8480
1	1761	8481
1	1760	8482
1	1749	8483
1	1729	8484
1	1707	8485
1	1683	8486
1	1663	8487
1	1658	8488
1	1658	8489
1	1649	8490
1	1641	8491
1	1638	8492
1	1641	8493
1	1644	8494
1	1652	8495
1	1660	8496
1	1668	8497
1	1675	8498
1	1680	8499
1	1689	8500
1	1701	8501
1	1716	8502
1	1739	8503
1	1764	8504
1	1769	8505
1	1766	8506
1	1759	8507
1	1740	8508
1	1718	8509
1	1692	8510
1	1670	8511
1	1656	8512
1	1643	8513
1	1626	8514
1	1629	8515
1	1639	8516
1	1667	8517
1	1701	8518
1	1746	8519
1	1782	8520
1	1812	8521
1	1825	8522
1	1824	8523
1	1814	8524
1	1800	8525
1	1791	8526
1	1780	8527
1	1765	8528
1	1751	8529
1	1733	8530
1	1717	8531
1	1705	8532
1	1697	8533
1	1686	8534
1	1672	8535
1	1667	8536
1	1672	8537
1	1670	8538
1	1670	8539
1	1751	8560
1	1747	8561
1	1736	8562
1	1713	8563
1	1698	8564
1	1675	8565
1	1652	8566
1	1635	8567
1	1627	8568
1	1625	8569
1	1629	8570
1	1639	8571
1	1647	8572
1	1658	8573
1	1661	8574
1	1674	8575
1	1686	8576
1	1692	8577
1	1694	8578
1	1705	8579
1	1674	8540
1	1684	8541
1	1691	8542
1	1697	8543
1	1688	8544
1	1679	8545
1	1663	8546
1	1652	8547
1	1647	8548
1	1656	8549
1	1660	8550
1	1671	8551
1	1681	8552
1	1690	8553
1	1702	8554
1	1712	8555
1	1720	8556
1	1731	8557
1	1742	8558
1	1746	8559
1	1711	8580
1	1725	8581
1	1741	8582
1	1751	8583
1	1754	8584
1	1757	8585
1	1760	8586
1	1757	8587
1	1760	8588
1	1753	8589
1	1739	8590
1	1724	8591
1	1711	8592
1	1711	8593
1	1719	8594
1	1725	8595
1	1729	8596
1	1728	8597
1	1733	8598
1	1740	8599
1	1751	8600
1	1757	8601
1	1761	8602
1	1762	8603
1	1751	8604
1	1742	8605
1	1737	8606
1	1730	8607
1	1721	8608
1	1714	8609
1	1698	8610
1	1684	8611
1	1671	8612
1	1669	8613
1	1671	8614
1	1679	8615
1	1687	8616
1	1698	8617
1	1712	8618
1	1723	8619
1	1738	8620
1	1754	8621
1	1767	8622
1	1773	8623
1	1777	8624
1	1756	8625
1	1738	8626
1	1716	8627
1	1702	8628
1	1692	8629
1	1674	8630
1	1660	8631
1	1649	8632
1	1651	8633
1	1652	8634
1	1658	8635
1	1660	8636
1	1664	8637
1	1672	8638
1	1686	8639
1	1698	8640
1	1724	8641
1	1746	8642
1	1766	8643
1	1790	8644
1	1801	8645
1	1809	8646
1	1803	8647
1	1798	8648
1	1782	8649
1	1764	8650
1	1749	8651
1	1728	8652
1	1712	8653
1	1704	8654
1	1698	8655
1	1701	8656
1	1710	8657
1	1718	8658
1	1726	8659
1	1765	8680
1	1778	8681
1	1788	8682
1	1794	8683
1	1803	8684
1	1796	8685
1	1787	8686
1	1764	8687
1	1736	8688
1	1710	8689
1	1690	8690
1	1681	8691
1	1674	8692
1	1681	8693
1	1685	8694
1	1694	8695
1	1707	8696
1	1716	8697
1	1721	8698
1	1726	8699
1	1733	8660
1	1737	8661
1	1737	8662
1	1729	8663
1	1713	8664
1	1698	8665
1	1680	8666
1	1660	8667
1	1647	8668
1	1654	8669
1	1659	8670
1	1663	8671
1	1670	8672
1	1678	8673
1	1686	8674
1	1700	8675
1	1713	8676
1	1724	8677
1	1738	8678
1	1747	8679
1	1721	8700
1	1718	8701
1	1711	8702
1	1698	8703
1	1687	8704
1	1683	8705
1	1674	8706
1	1660	8707
1	1658	8708
1	1652	8709
1	1649	8710
1	1649	8711
1	1656	8712
1	1660	8713
1	1671	8714
1	1677	8715
1	1684	8716
1	1689	8717
1	1700	8718
1	1711	8719
1	1716	8720
1	1719	8721
1	1713	8722
1	1711	8723
1	1698	8724
1	1681	8725
1	1655	8726
1	1631	8727
1	1612	8728
1	1602	8729
1	1598	8730
1	1608	8731
1	1634	8732
1	1647	8733
1	1660	8734
1	1665	8735
1	1671	8736
1	1676	8737
1	1680	8738
1	1676	8739
1	1681	8740
1	1690	8741
1	1703	8742
1	1716	8743
1	1718	8744
1	1719	8745
1	1725	8746
1	1729	8747
1	1728	8748
1	1720	8749
1	1710	8750
1	1692	8751
1	1678	8752
1	1665	8753
1	1656	8754
1	1647	8755
1	1641	8756
1	1638	8757
1	1641	8758
1	1656	8759
1	1670	8760
1	1686	8761
1	1688	8762
1	1682	8763
1	1663	8764
1	1646	8765
1	1624	8766
1	1598	8767
1	1574	8768
1	1551	8769
1	1537	8770
1	1530	8771
1	1531	8772
1	1541	8773
1	1563	8774
1	1582	8775
1	1595	8776
1	1607	8777
1	1621	8778
1	1634	8779
1	1647	8780
1	1645	8781
1	1625	8782
1	1603	8783
1	1580	8784
1	1555	8785
1	1539	8786
1	1523	8787
1	1507	8788
1	1497	8789
1	1489	8790
1	1488	8791
1	1502	8792
1	1517	8793
1	1533	8794
1	1553	8795
1	1572	8796
1	1592	8797
1	1611	8798
1	1629	8799
1	1646	8800
1	1656	8801
1	1660	8802
1	1660	8803
1	1665	8804
1	1661	8805
1	1660	8806
1	1660	8807
1	1670	8808
1	1685	8809
1	1692	8810
1	1703	8811
1	1718	8812
1	1737	8813
1	1742	8814
1	1749	8815
1	1753	8816
1	1760	8817
1	1768	8818
1	1780	8819
1	1780	8820
1	1776	8821
1	1769	8822
1	1761	8823
1	1738	8824
1	1724	8825
1	1710	8826
1	1699	8827
1	1688	8828
1	1682	8829
1	1668	8830
1	1660	8831
1	1659	8832
1	1670	8833
1	1683	8834
1	1690	8835
1	1701	8836
1	1719	8837
1	1737	8838
1	1743	8839
1	1747	8840
1	1750	8841
1	1752	8842
1	1752	8843
1	1751	8844
1	1751	8845
1	1747	8846
1	1738	8847
1	1733	8848
1	1727	8849
1	1716	8850
1	1710	8851
1	1704	8852
1	1701	8853
1	1698	8854
1	1695	8855
1	1700	8856
1	1716	8857
1	1744	8858
1	1767	8859
1	1791	8860
1	1801	8861
1	1803	8862
1	1796	8863
1	1791	8864
1	1769	8865
1	1741	8866
1	1712	8867
1	1683	8868
1	1660	8869
1	1645	8870
1	1634	8871
1	1634	8872
1	1643	8873
1	1651	8874
1	1664	8875
1	1683	8876
1	1705	8877
1	1726	8878
1	1754	8879
1	1775	8880
1	1796	8881
1	1817	8882
1	1817	8883
1	1815	8884
1	1803	8885
1	1791	8886
1	1777	8887
1	1759	8888
1	1725	8889
1	1688	8890
1	1642	8891
1	1594	8892
1	1543	8893
1	1490	8894
1	1430	8895
1	1369	8896
1	1307	8897
1	1257	8898
1	1204	8899
1	1152	8900
1	1099	8901
1	1053	8902
1	1018	8903
1	990	8904
1	985	8905
1	993	8906
1	1015	8907
1	1039	8908
1	1067	8909
1	1093	8910
1	1132	8911
1	1184	8912
1	1253	8913
1	1332	8914
1	1424	8915
1	1512	8916
1	1600	8917
1	1685	8918
1	1755	8919
1	1838	8920
1	1895	8921
1	1944	8922
1	1975	8923
1	2007	8924
1	2029	8925
1	2044	8926
1	2071	8927
1	2088	8928
1	2094	8929
1	2104	8930
1	2106	8931
1	2109	8932
1	2106	8933
1	2093	8934
1	2080	8935
1	2074	8936
1	2060	8937
1	2045	8938
1	2017	8939
1	1985	8940
1	1956	8941
1	1919	8942
1	1880	8943
1	1842	8944
1	1799	8945
1	1764	8946
1	1737	8947
1	1712	8948
1	1690	8949
1	1683	8950
1	1683	8951
1	1686	8952
1	1695	8953
1	1711	8954
1	1719	8955
1	1728	8956
1	1737	8957
1	1739	8958
1	1741	8959
1	1741	8960
1	1738	8961
1	1734	8962
1	1724	8963
1	1705	8964
1	1688	8965
1	1675	8966
1	1662	8967
1	1658	8968
1	1661	8969
1	1664	8970
1	1660	8971
1	1657	8972
1	1649	8973
1	1650	8974
1	1657	8975
1	1670	8976
1	1687	8977
1	1706	8978
1	1718	8979
1	1737	8980
1	1750	8981
1	1760	8982
1	1767	8983
1	1777	8984
1	1773	8985
1	1764	8986
1	1754	8987
1	1742	8988
1	1730	8989
1	1715	8990
1	1703	8991
1	1688	8992
1	1681	8993
1	1670	8994
1	1669	8995
1	1673	8996
1	1677	8997
1	1686	8998
1	1702	8999
1	1710	9000
1	1711	9001
1	1710	9002
1	1694	9003
1	1664	9004
1	1639	9005
1	1621	9006
1	1607	9007
1	1600	9008
1	1596	9009
1	1605	9010
1	1618	9011
1	1634	9012
1	1658	9013
1	1686	9014
1	1706	9015
1	1717	9016
1	1729	9017
1	1738	9018
1	1741	9019
1	1746	9020
1	1747	9021
1	1741	9022
1	1739	9023
1	1733	9024
1	1714	9025
1	1700	9026
1	1686	9027
1	1679	9028
1	1672	9029
1	1661	9030
1	1660	9031
1	1662	9032
1	1665	9033
1	1672	9034
1	1677	9035
1	1678	9036
1	1678	9037
1	1677	9038
1	1675	9039
1	1683	9040
1	1686	9041
1	1685	9042
1	1673	9043
1	1665	9044
1	1652	9045
1	1634	9046
1	1616	9047
1	1602	9048
1	1586	9049
1	1576	9050
1	1567	9051
1	1566	9052
1	1569	9053
1	1574	9054
1	1595	9055
1	1618	9056
1	1646	9057
1	1662	9058
1	1683	9059
1	1688	9060
1	1690	9061
1	1686	9062
1	1683	9063
1	1678	9064
1	1674	9065
1	1672	9066
1	1660	9067
1	1647	9068
1	1632	9069
1	1621	9070
1	1612	9071
1	1603	9072
1	1595	9073
1	1600	9074
1	1605	9075
1	1609	9076
1	1612	9077
1	1616	9078
1	1611	9079
1	1629	9100
1	1616	9101
1	1598	9102
1	1575	9103
1	1553	9104
1	1528	9105
1	1502	9106
1	1489	9107
1	1486	9108
1	1491	9109
1	1500	9110
1	1507	9111
1	1521	9112
1	1541	9113
1	1554	9114
1	1571	9115
1	1581	9116
1	1582	9117
1	1584	9118
1	1597	9119
1	1611	9080
1	1620	9081
1	1621	9082
1	1620	9083
1	1618	9084
1	1612	9085
1	1613	9086
1	1613	9087
1	1612	9088
1	1618	9089
1	1616	9090
1	1625	9091
1	1631	9092
1	1633	9093
1	1630	9094
1	1625	9095
1	1625	9096
1	1629	9097
1	1634	9098
1	1632	9099
1	1598	9120
1	1595	9121
1	1583	9122
1	1582	9123
1	1571	9124
1	1561	9125
1	1553	9126
1	1543	9127
1	1530	9128
1	1515	9129
1	1501	9130
1	1485	9131
1	1471	9132
1	1463	9133
1	1450	9134
1	1440	9135
1	1445	9136
1	1464	9137
1	1491	9138
1	1521	9139
1	1550	9140
1	1577	9141
1	1593	9142
1	1599	9143
1	1593	9144
1	1584	9145
1	1570	9146
1	1553	9147
1	1533	9148
1	1521	9149
1	1502	9150
1	1484	9151
1	1472	9152
1	1461	9153
1	1450	9154
1	1439	9155
1	1428	9156
1	1424	9157
1	1422	9158
1	1423	9159
1	1433	9160
1	1450	9161
1	1469	9162
1	1487	9163
1	1503	9164
1	1507	9165
1	1510	9166
1	1512	9167
1	1508	9168
1	1504	9169
1	1507	9170
1	1512	9171
1	1513	9172
1	1515	9173
1	1508	9174
1	1507	9175
1	1506	9176
1	1505	9177
1	1504	9178
1	1511	9179
1	1512	9180
1	1515	9181
1	1517	9182
1	1524	9183
1	1529	9184
1	1539	9185
1	1538	9186
1	1533	9187
1	1528	9188
1	1513	9189
1	1503	9190
1	1490	9191
1	1485	9192
1	1487	9193
1	1497	9194
1	1507	9195
1	1521	9196
1	1541	9197
1	1562	9198
1	1585	9199
1	1607	9200
1	1623	9201
1	1630	9202
1	1634	9203
1	1626	9204
1	1611	9205
1	1592	9206
1	1562	9207
1	1539	9208
1	1526	9209
1	1516	9210
1	1507	9211
1	1503	9212
1	1504	9213
1	1508	9214
1	1516	9215
1	1530	9216
1	1548	9217
1	1565	9218
1	1582	9219
1	1611	9220
1	1643	9221
1	1674	9222
1	1697	9223
1	1717	9224
1	1716	9225
1	1715	9226
1	1704	9227
1	1684	9228
1	1660	9229
1	1643	9230
1	1626	9231
1	1615	9232
1	1607	9233
1	1604	9234
1	1608	9235
1	1621	9236
1	1634	9237
1	1660	9238
1	1690	9239
1	1713	9240
1	1746	9241
1	1768	9242
1	1791	9243
1	1803	9244
1	1801	9245
1	1791	9246
1	1786	9247
1	1778	9248
1	1764	9249
1	1751	9250
1	1746	9251
1	1734	9252
1	1721	9253
1	1718	9254
1	1714	9255
1	1716	9256
1	1724	9257
1	1733	9258
1	1739	9259
1	1682	9300
1	1688	9301
1	1691	9302
1	1690	9303
1	1691	9304
1	1696	9305
1	1701	9306
1	1710	9307
1	1716	9308
1	1710	9309
1	1701	9310
1	1688	9311
1	1678	9312
1	1667	9313
1	1667	9314
1	1661	9315
1	1657	9316
1	1652	9317
1	1655	9318
1	1661	9319
1	1731	9280
1	1738	9281
1	1741	9282
1	1746	9283
1	1751	9284
1	1742	9285
1	1729	9286
1	1716	9287
1	1707	9288
1	1694	9289
1	1683	9290
1	1671	9291
1	1669	9292
1	1669	9293
1	1665	9294
1	1667	9295
1	1667	9296
1	1662	9297
1	1660	9298
1	1670	9299
1	1749	9260
1	1752	9261
1	1754	9262
1	1751	9263
1	1739	9264
1	1723	9265
1	1708	9266
1	1697	9267
1	1688	9268
1	1687	9269
1	1681	9270
1	1674	9271
1	1670	9272
1	1670	9273
1	1669	9274
1	1671	9275
1	1681	9276
1	1697	9277
1	1712	9278
1	1720	9279
1	1813	9340
1	1826	9341
1	1821	9342
1	1798	9343
1	1778	9344
1	1749	9345
1	1716	9346
1	1692	9347
1	1667	9348
1	1639	9349
1	1616	9350
1	1602	9351
1	1589	9352
1	1584	9353
1	1580	9354
1	1593	9355
1	1607	9356
1	1628	9357
1	1648	9358
1	1678	9359
1	1680	9320
1	1698	9321
1	1712	9322
1	1726	9323
1	1738	9324
1	1743	9325
1	1749	9326
1	1750	9327
1	1755	9328
1	1755	9329
1	1745	9330
1	1739	9331
1	1739	9332
1	1737	9333
1	1734	9334
1	1738	9335
1	1750	9336
1	1759	9337
1	1773	9338
1	1787	9339
1	1739	9380
1	1739	9381
1	1737	9382
1	1734	9383
1	1726	9384
1	1715	9385
1	1706	9386
1	1697	9387
1	1689	9388
1	1687	9389
1	1678	9390
1	1662	9391
1	1655	9392
1	1651	9393
1	1651	9394
1	1659	9395
1	1670	9396
1	1681	9397
1	1687	9398
1	1686	9399
1	1686	9400
1	1685	9401
1	1682	9402
1	1674	9403
1	1670	9404
1	1664	9405
1	1667	9406
1	1673	9407
1	1679	9408
1	1686	9409
1	1691	9410
1	1703	9411
1	1718	9412
1	1733	9413
1	1737	9414
1	1742	9415
1	1751	9416
1	1755	9417
1	1760	9418
1	1764	9419
1	1705	9360
1	1726	9361
1	1742	9362
1	1749	9363
1	1742	9364
1	1730	9365
1	1723	9366
1	1720	9367
1	1714	9368
1	1701	9369
1	1689	9370
1	1676	9371
1	1665	9372
1	1661	9373
1	1670	9374
1	1675	9375
1	1687	9376
1	1708	9377
1	1726	9378
1	1733	9379
1	1764	9420
1	1764	9421
1	1753	9422
1	1754	9423
1	1738	9424
1	1718	9425
1	1700	9426
1	1688	9427
1	1675	9428
1	1660	9429
1	1639	9430
1	1623	9431
1	1613	9432
1	1620	9433
1	1631	9434
1	1638	9435
1	1651	9436
1	1676	9437
1	1699	9438
1	1725	9439
1	1635	9460
1	1621	9461
1	1610	9462
1	1607	9463
1	1608	9464
1	1605	9465
1	1599	9466
1	1602	9467
1	1599	9468
1	1590	9469
1	1582	9470
1	1584	9471
1	1594	9472
1	1610	9473
1	1621	9474
1	1638	9475
1	1660	9476
1	1680	9477
1	1697	9478
1	1718	9479
1	1728	9480
1	1733	9481
1	1736	9482
1	1729	9483
1	1719	9484
1	1708	9485
1	1698	9486
1	1684	9487
1	1671	9488
1	1652	9489
1	1638	9490
1	1633	9491
1	1621	9492
1	1617	9493
1	1626	9494
1	1631	9495
1	1643	9496
1	1660	9497
1	1680	9498
1	1695	9499
1	1707	9500
1	1712	9501
1	1710	9502
1	1700	9503
1	1686	9504
1	1681	9505
1	1674	9506
1	1669	9507
1	1665	9508
1	1668	9509
1	1661	9510
1	1661	9511
1	1662	9512
1	1661	9513
1	1660	9514
1	1661	9515
1	1666	9516
1	1664	9517
1	1661	9518
1	1647	9519
1	1752	9440
1	1775	9441
1	1787	9442
1	1790	9443
1	1775	9444
1	1762	9445
1	1744	9446
1	1731	9447
1	1716	9448
1	1718	9449
1	1717	9450
1	1718	9451
1	1718	9452
1	1721	9453
1	1723	9454
1	1716	9455
1	1707	9456
1	1692	9457
1	1674	9458
1	1652	9459
1	1631	9520
1	1607	9521
1	1592	9522
1	1581	9523
1	1583	9524
1	1582	9525
1	1596	9526
1	1608	9527
1	1616	9528
1	1629	9529
1	1640	9530
1	1647	9531
1	1660	9532
1	1672	9533
1	1680	9534
1	1675	9535
1	1665	9536
1	1660	9537
1	1660	9538
1	1664	9539
1	1665	9540
1	1682	9541
1	1691	9542
1	1699	9543
1	1700	9544
1	1693	9545
1	1680	9546
1	1661	9547
1	1646	9548
1	1622	9549
1	1608	9550
1	1605	9551
1	1600	9552
1	1602	9553
1	1610	9554
1	1616	9555
1	1623	9556
1	1633	9557
1	1637	9558
1	1635	9559
1	1600	9580
1	1598	9581
1	1593	9582
1	1581	9583
1	1574	9584
1	1551	9585
1	1527	9586
1	1508	9587
1	1499	9588
1	1490	9589
1	1481	9590
1	1477	9591
1	1477	9592
1	1477	9593
1	1476	9594
1	1490	9595
1	1504	9596
1	1526	9597
1	1544	9598
1	1567	9599
1	1634	9560
1	1623	9561
1	1610	9562
1	1597	9563
1	1580	9564
1	1559	9565
1	1539	9566
1	1518	9567
1	1506	9568
1	1510	9569
1	1515	9570
1	1521	9571
1	1530	9572
1	1547	9573
1	1557	9574
1	1574	9575
1	1582	9576
1	1589	9577
1	1596	9578
1	1596	9579
1	1583	9600
1	1597	9601
1	1607	9602
1	1615	9603
1	1625	9604
1	1632	9605
1	1632	9606
1	1634	9607
1	1641	9608
1	1648	9609
1	1655	9610
1	1660	9611
1	1669	9612
1	1679	9613
1	1690	9614
1	1700	9615
1	1704	9616
1	1707	9617
1	1711	9618
1	1719	9619
1	1725	9620
1	1724	9621
1	1711	9622
1	1697	9623
1	1682	9624
1	1664	9625
1	1647	9626
1	1634	9627
1	1629	9628
1	1620	9629
1	1603	9630
1	1594	9631
1	1593	9632
1	1597	9633
1	1607	9634
1	1620	9635
1	1636	9636
1	1654	9637
1	1674	9638
1	1687	9639
1	1700	9640
1	1711	9641
1	1715	9642
1	1716	9643
1	1724	9644
1	1718	9645
1	1713	9646
1	1712	9647
1	1712	9648
1	1713	9649
1	1713	9650
1	1712	9651
1	1712	9652
1	1712	9653
1	1707	9654
1	1706	9655
1	1710	9656
1	1711	9657
1	1712	9658
1	1726	9659
1	1746	9660
1	1764	9661
1	1778	9662
1	1786	9663
1	1780	9664
1	1765	9665
1	1749	9666
1	1733	9667
1	1720	9668
1	1705	9669
1	1698	9670
1	1690	9671
1	1686	9672
1	1687	9673
1	1693	9674
1	1688	9675
1	1688	9676
1	1690	9677
1	1703	9678
1	1719	9679
1	1738	9680
1	1750	9681
1	1760	9682
1	1764	9683
1	1755	9684
1	1741	9685
1	1723	9686
1	1703	9687
1	1686	9688
1	1672	9689
1	1650	9690
1	1633	9691
1	1625	9692
1	1607	9693
1	1591	9694
1	1577	9695
1	1553	9696
1	1520	9697
1	1477	9698
1	1424	9699
1	1362	9700
1	1299	9701
1	1233	9702
1	1171	9703
1	1119	9704
1	1067	9705
1	1026	9706
1	994	9707
1	971	9708
1	956	9709
1	959	9710
1	983	9711
1	1018	9712
1	1058	9713
1	1094	9714
1	1137	9715
1	1193	9716
1	1254	9717
1	1319	9718
1	1398	9719
1	1474	9720
1	1543	9721
1	1611	9722
1	1690	9723
1	1751	9724
1	1815	9725
1	1868	9726
1	1911	9727
1	1953	9728
1	1986	9729
1	2012	9730
1	2026	9731
1	2040	9732
1	2053	9733
1	2071	9734
1	2083	9735
1	2093	9736
1	2107	9737
1	2111	9738
1	2107	9739
1	2097	9740
1	2075	9741
1	2036	9742
1	1989	9743
1	1935	9744
1	1886	9745
1	1834	9746
1	1779	9747
1	1738	9748
1	1714	9749
1	1687	9750
1	1669	9751
1	1659	9752
1	1654	9753
1	1647	9754
1	1646	9755
1	1655	9756
1	1677	9757
1	1712	9758
1	1738	9759
1	1760	9760
1	1765	9761
1	1772	9762
1	1765	9763
1	1756	9764
1	1736	9765
1	1712	9766
1	1693	9767
1	1677	9768
1	1661	9769
1	1655	9770
1	1643	9771
1	1634	9772
1	1625	9773
1	1619	9774
1	1616	9775
1	1618	9776
1	1620	9777
1	1624	9778
1	1634	9779
1	1638	9780
1	1647	9781
1	1651	9782
1	1652	9783
1	1655	9784
1	1652	9785
1	1647	9786
1	1638	9787
1	1639	9788
1	1642	9789
1	1652	9790
1	1663	9791
1	1664	9792
1	1662	9793
1	1665	9794
1	1674	9795
1	1688	9796
1	1700	9797
1	1710	9798
1	1712	9799
1	1712	9800
1	1712	9801
1	1712	9802
1	1712	9803
1	1705	9804
1	1699	9805
1	1686	9806
1	1679	9807
1	1677	9808
1	1683	9809
1	1680	9810
1	1677	9811
1	1677	9812
1	1674	9813
1	1674	9814
1	1671	9815
1	1675	9816
1	1682	9817
1	1687	9818
1	1686	9819
1	1687	9820
1	1687	9821
1	1685	9822
1	1674	9823
1	1673	9824
1	1660	9825
1	1651	9826
1	1642	9827
1	1631	9828
1	1625	9829
1	1622	9830
1	1621	9831
1	1618	9832
1	1617	9833
1	1613	9834
1	1613	9835
1	1616	9836
1	1620	9837
1	1625	9838
1	1633	9839
1	1634	9840
1	1647	9841
1	1655	9842
1	1659	9843
1	1664	9844
1	1668	9845
1	1663	9846
1	1655	9847
1	1642	9848
1	1618	9849
1	1602	9850
1	1589	9851
1	1577	9852
1	1574	9853
1	1582	9854
1	1584	9855
1	1589	9856
1	1590	9857
1	1590	9858
1	1593	9859
1	1609	9860
1	1632	9861
1	1647	9862
1	1662	9863
1	1670	9864
1	1679	9865
1	1680	9866
1	1681	9867
1	1675	9868
1	1674	9869
1	1670	9870
1	1669	9871
1	1665	9872
1	1656	9873
1	1641	9874
1	1629	9875
1	1611	9876
1	1602	9877
1	1598	9878
1	1589	9879
1	1597	9880
1	1607	9881
1	1618	9882
1	1623	9883
1	1634	9884
1	1634	9885
1	1632	9886
1	1629	9887
1	1628	9888
1	1632	9889
1	1641	9890
1	1652	9891
1	1661	9892
1	1667	9893
1	1661	9894
1	1656	9895
1	1651	9896
1	1647	9897
1	1648	9898
1	1657	9899
1	1652	9900
1	1644	9901
1	1629	9902
1	1607	9903
1	1581	9904
1	1555	9905
1	1535	9906
1	1528	9907
1	1520	9908
1	1511	9909
1	1511	9910
1	1518	9911
1	1525	9912
1	1529	9913
1	1539	9914
1	1544	9915
1	1552	9916
1	1554	9917
1	1555	9918
1	1556	9919
1	1518	9940
1	1517	9941
1	1517	9942
1	1510	9943
1	1503	9944
1	1489	9945
1	1476	9946
1	1472	9947
1	1473	9948
1	1476	9949
1	1481	9950
1	1487	9951
1	1492	9952
1	1502	9953
1	1508	9954
1	1529	9955
1	1548	9956
1	1564	9957
1	1575	9958
1	1584	9959
1	1553	9920
1	1546	9921
1	1547	9922
1	1552	9923
1	1554	9924
1	1553	9925
1	1549	9926
1	1545	9927
1	1544	9928
1	1548	9929
1	1544	9930
1	1548	9931
1	1557	9932
1	1564	9933
1	1567	9934
1	1568	9935
1	1562	9936
1	1553	9937
1	1540	9938
1	1525	9939
1	1583	9960
1	1579	9961
1	1567	9962
1	1554	9963
1	1534	9964
1	1515	9965
1	1489	9966
1	1466	9967
1	1451	9968
1	1439	9969
1	1442	9970
1	1451	9971
1	1474	9972
1	1495	9973
1	1527	9974
1	1548	9975
1	1563	9976
1	1579	9977
1	1585	9978
1	1593	9979
1	1602	9980
1	1607	9981
1	1608	9982
1	1603	9983
1	1589	9984
1	1566	9985
1	1542	9986
1	1520	9987
1	1498	9988
1	1485	9989
1	1467	9990
1	1449	9991
1	1446	9992
1	1450	9993
1	1458	9994
1	1469	9995
1	1476	9996
1	1490	9997
1	1512	9998
1	1535	9999
1	1564	10000
1	1595	10001
1	1623	10002
1	1638	10003
1	1647	10004
1	1639	10005
1	1631	10006
1	1613	10007
1	1602	10008
1	1589	10009
1	1577	10010
1	1568	10011
1	1564	10012
1	1567	10013
1	1561	10014
1	1563	10015
1	1569	10016
1	1580	10017
1	1593	10018
1	1613	10019
1	1637	10020
1	1651	10021
1	1675	10022
1	1690	10023
1	1693	10024
1	1697	10025
1	1698	10026
1	1694	10027
1	1695	10028
1	1698	10029
1	1695	10030
1	1686	10031
1	1680	10032
1	1674	10033
1	1672	10034
1	1665	10035
1	1657	10036
1	1651	10037
1	1644	10038
1	1634	10039
1	1629	10040
1	1633	10041
1	1634	10042
1	1644	10043
1	1644	10044
1	1647	10045
1	1652	10046
1	1660	10047
1	1674	10048
1	1688	10049
1	1694	10050
1	1699	10051
1	1704	10052
1	1707	10053
1	1706	10054
1	1707	10055
1	1712	10056
1	1728	10057
1	1747	10058
1	1764	10059
1	1789	10060
1	1814	10061
1	1832	10062
1	1844	10063
1	1855	10064
1	1849	10065
1	1833	10066
1	1809	10067
1	1780	10068
1	1759	10069
1	1738	10070
1	1713	10071
1	1690	10072
1	1673	10073
1	1660	10074
1	1661	10075
1	1674	10076
1	1694	10077
1	1715	10078
1	1739	10079
1	1752	10080
1	1760	10081
1	1763	10082
1	1764	10083
1	1763	10084
1	1764	10085
1	1772	10086
1	1777	10087
1	1779	10088
1	1775	10089
1	1772	10090
1	1772	10091
1	1766	10092
1	1765	10093
