#Date:= 2024-10-08T16:04:17.170164
#Sampling Rate(Hz):= 1000
#Labels:= LOD	ECG	TS
1	128	20
1	128	21
1	128	22
1	128	23
1	128	24
1	128	25
1	128	26
1	128	27
1	128	28
1	1443	29
1	1450	30
1	1451	31
1	1454	32
1	1469	33
1	1490	34
1	1505	35
1	1529	36
1	1553	37
1	1576	38
1	1589	39
1	1599	40
1	1605	41
1	1617	42
1	1632	43
1	1644	44
1	1660	45
1	1660	46
1	1647	47
1	1634	48
1	1611	49
1	1590	50
1	1571	51
1	1563	52
1	1569	53
1	1584	54
1	1610	55
1	1651	56
1	1688	57
1	1729	58
1	1767	59
1	1793	60
1	1802	61
1	1785	62
1	1753	63
1	1712	64
1	1660	65
1	1596	66
1	1542	67
1	1507	68
1	1494	69
1	1502	70
1	1517	71
1	1544	72
1	1565	73
1	1576	74
1	1581	75
1	1580	76
1	1582	77
1	1581	78
1	1581	79
1	1581	80
1	1581	81
1	1580	82
1	1556	83
1	1517	84
1	1462	85
1	1400	86
1	1346	87
1	1310	88
1	1291	89
1	1284	90
1	1296	91
1	1320	92
1	1351	93
1	1383	94
1	1409	95
1	1420	96
1	1427	97
1	1429	98
1	1435	99
1	1445	100
1	1452	101
1	1463	102
1	1464	103
1	1464	104
1	1476	105
1	1477	106
1	1474	107
1	1452	108
1	1425	109
1	1397	110
1	1370	111
1	1347	112
1	1335	113
1	1331	114
1	1334	115
1	1352	116
1	1384	117
1	1424	118
1	1458	119
1	1490	120
1	1508	121
1	1519	122
1	1521	123
1	1523	124
1	1516	125
1	1501	126
1	1476	127
1	1452	128
1	1435	129
1	1413	130
1	1398	131
1	1381	132
1	1369	133
1	1357	134
1	1346	135
1	1337	136
1	1319	137
1	1297	138
1	1278	139
1	1262	140
1	1231	141
1	1199	142
1	1175	143
1	1155	144
1	1149	145
1	1162	146
1	1190	147
1	1231	148
1	1279	149
1	1323	150
1	1359	151
1	1398	152
1	1429	153
1	1476	154
1	1526	155
1	1579	156
1	1620	157
1	1648	158
1	1655	159
1	1646	160
1	1613	161
1	1583	162
1	1555	163
1	1529	164
1	1503	165
1	1492	166
1	1478	167
1	1469	168
1	1454	169
1	1437	170
1	1417	171
1	1398	172
1	1377	173
1	1370	174
1	1364	175
1	1359	176
1	1369	177
1	1394	178
1	1413	179
1	1435	180
1	1450	181
1	1476	182
1	1503	183
1	1535	184
1	1557	185
1	1572	186
1	1581	187
1	1593	188
1	1598	189
1	1593	190
1	1566	191
1	1544	192
1	1528	193
1	1508	194
1	1489	195
1	1474	196
1	1456	197
1	1441	198
1	1429	199
1	1415	200
1	1400	201
1	1394	202
1	1384	203
1	1384	204
1	1398	205
1	1417	206
1	1448	207
1	1495	208
1	1559	209
1	1638	210
1	1711	211
1	1778	212
1	1840	213
1	1888	214
1	1926	215
1	1952	216
1	1957	217
1	1958	218
1	1962	219
1	1956	220
1	1922	221
1	1881	222
1	1834	223
1	1778	224
1	1731	225
1	1701	226
1	1686	227
1	1665	228
1	1645	229
1	1629	230
1	1623	231
1	1631	232
1	1631	233
1	1633	234
1	1625	235
1	1615	236
1	1611	237
1	1635	238
1	1656	239
1	1686	240
1	1716	241
1	1755	242
1	1796	243
1	1849	244
1	1895	245
1	1922	246
1	1926	247
1	1921	248
1	1907	249
1	1905	250
1	1908	251
1	1913	252
1	1906	253
1	1895	254
1	1886	255
1	1886	256
1	1893	257
1	1888	258
1	1869	259
1	2052	280
1	2018	281
1	1974	282
1	1932	283
1	1896	284
1	1857	285
1	1811	286
1	1756	287
1	1723	288
1	1710	289
1	1718	290
1	1738	291
1	1769	292
1	1814	293
1	1868	294
1	1925	295
1	1989	296
1	2052	297
1	2088	298
1	2117	299
1	1838	260
1	1802	261
1	1787	262
1	1773	263
1	1765	264
1	1760	265
1	1750	266
1	1746	267
1	1742	268
1	1747	269
1	1757	270
1	1782	271
1	1816	272
1	1852	273
1	1887	274
1	1934	275
1	1974	276
1	2012	277
1	2039	278
1	2053	279
1	2148	300
1	2158	301
1	2174	302
1	2197	303
1	2215	304
1	2237	305
1	2250	306
1	2261	307
1	2273	308
1	2287	309
1	2309	310
1	2335	311
1	2367	312
1	2394	313
1	2420	314
1	2445	315
1	2448	316
1	2445	317
1	2435	318
1	2421	319
1	2419	340
1	2406	341
1	2390	342
1	2367	343
1	2341	344
1	2318	345
1	2307	346
1	2294	347
1	2289	348
1	2287	349
1	2288	350
1	2277	351
1	2257	352
1	2212	353
1	2179	354
1	2145	355
1	2123	356
1	2117	357
1	2123	358
1	2139	359
1	2405	320
1	2371	321
1	2326	322
1	2276	323
1	2221	324
1	2176	325
1	2136	326
1	2114	327
1	2100	328
1	2105	329
1	2122	330
1	2143	331
1	2171	332
1	2234	333
1	2291	334
1	2346	335
1	2389	336
1	2400	337
1	2416	338
1	2419	339
1	2172	360
1	2230	361
1	2288	362
1	2354	363
1	2421	364
1	2480	365
1	2515	366
1	2535	367
1	2552	368
1	2567	369
1	2577	370
1	2577	371
1	2577	372
1	2570	373
1	2553	374
1	2532	375
1	2519	376
1	2503	377
1	2489	378
1	2484	379
1	2484	380
1	2489	381
1	2508	382
1	2532	383
1	2559	384
1	2581	385
1	2600	386
1	2623	387
1	2640	388
1	2654	389
1	2666	390
1	2683	391
1	2696	392
1	2708	393
1	2719	394
1	2726	395
1	2731	396
1	2726	397
1	2725	398
1	2728	399
1	2734	400
1	2734	401
1	2727	402
1	2716	403
1	2703	404
1	2685	405
1	2668	406
1	2655	407
1	2646	408
1	2648	409
1	2655	410
1	2657	411
1	2653	412
1	2647	413
1	2649	414
1	2649	415
1	2649	416
1	2640	417
1	2622	418
1	2593	419
1	1801	440
1	1755	441
1	1709	442
1	1660	443
1	1612	444
1	1575	445
1	1535	446
1	1503	447
1	1466	448
1	1429	449
1	1406	450
1	1412	451
1	1428	452
1	1457	453
1	1500	454
1	1529	455
1	1542	456
1	1539	457
1	1523	458
1	1507	459
1	2570	420
1	2536	421
1	2496	422
1	2444	423
1	2387	424
1	2323	425
1	2262	426
1	2200	427
1	2143	428
1	2084	429
1	2025	430
1	1987	431
1	1950	432
1	1926	433
1	1912	434
1	1898	435
1	1893	436
1	1881	437
1	1868	438
1	1839	439
1	1094	480
1	1085	481
1	1070	482
1	1045	483
1	1018	484
1	993	485
1	965	486
1	941	487
1	924	488
1	908	489
1	898	490
1	889	491
1	903	492
1	945	493
1	1018	494
1	1122	495
1	1241	496
1	1376	497
1	1524	498
1	1654	499
1	1500	460
1	1479	461
1	1461	462
1	1438	463
1	1403	464
1	1359	465
1	1307	466
1	1256	467
1	1209	468
1	1168	469
1	1137	470
1	1125	471
1	1119	472
1	1121	473
1	1127	474
1	1136	475
1	1139	476
1	1139	477
1	1129	478
1	1111	479
1	1764	500
1	1859	501
1	1922	502
1	1955	503
1	1972	504
1	1976	505
1	1962	506
1	1943	507
1	1917	508
1	1890	509
1	1870	510
1	1845	511
1	1815	512
1	1777	513
1	1754	514
1	1748	515
1	1751	516
1	1756	517
1	1769	518
1	1782	519
1	1795	520
1	1793	521
1	1803	522
1	1818	523
1	1836	524
1	1859	525
1	1874	526
1	1894	527
1	1906	528
1	1917	529
1	1924	530
1	1935	531
1	1948	532
1	1958	533
1	1971	534
1	1985	535
1	2000	536
1	2015	537
1	2035	538
1	2052	539
1	2063	540
1	2060	541
1	2050	542
1	2030	543
1	2015	544
1	2003	545
1	1991	546
1	1980	547
1	1970	548
1	1956	549
1	1947	550
1	1948	551
1	1961	552
1	1991	553
1	2027	554
1	2066	555
1	2114	556
1	2155	557
1	2179	558
1	2188	559
1	2182	560
1	2168	561
1	2147	562
1	2129	563
1	2107	564
1	2084	565
1	2052	566
1	2018	567
1	1993	568
1	1969	569
1	1961	570
1	1958	571
1	1962	572
1	1969	573
1	1978	574
1	1998	575
1	2019	576
1	2052	577
1	2079	578
1	2100	579
1	2106	580
1	2095	581
1	2086	582
1	2071	583
1	2057	584
1	2047	585
1	2045	586
1	2039	587
1	2028	588
1	2008	589
1	1978	590
1	1949	591
1	1913	592
1	1881	593
1	1847	594
1	1816	595
1	1777	596
1	1752	597
1	1742	598
1	1739	599
1	1746	600
1	1742	601
1	1738	602
1	1734	603
1	1723	604
1	1711	605
1	1693	606
1	1674	607
1	1655	608
1	1636	609
1	1625	610
1	1616	611
1	1623	612
1	1643	613
1	1676	614
1	1719	615
1	1752	616
1	1775	617
1	1792	618
1	1816	619
1	1611	640
1	1577	641
1	1542	642
1	1506	643
1	1476	644
1	1455	645
1	1445	646
1	1437	647
1	1441	648
1	1453	649
1	1475	650
1	1490	651
1	1505	652
1	1527	653
1	1542	654
1	1546	655
1	1543	656
1	1539	657
1	1527	658
1	1514	659
1	1827	640
1	1830	641
1	1837	642
1	1845	643
1	1843	644
1	1826	645
1	1787	646
1	1749	647
1	1713	648
1	1686	649
1	1670	650
1	1660	651
1	1656	652
1	1651	653
1	1649	654
1	1661	655
1	1662	656
1	1665	657
1	1660	658
1	1643	659
1	1504	660
1	1500	661
1	1477	662
1	1453	663
1	1429	664
1	1403	665
1	1382	666
1	1363	667
1	1338	668
1	1314	669
1	1293	670
1	1279	671
1	1268	672
1	1267	673
1	1273	674
1	1294	675
1	1337	676
1	1382	677
1	1428	678
1	1464	679
1	1493	680
1	1509	681
1	1505	682
1	1494	683
1	1476	684
1	1452	685
1	1418	686
1	1380	687
1	1348	688
1	1323	689
1	1305	690
1	1284	691
1	1269	692
1	1260	693
1	1256	694
1	1260	695
1	1274	696
1	1293	697
1	1307	698
1	1315	699
1	1319	700
1	1314	701
1	1319	702
1	1323	703
1	1319	704
1	1319	705
1	1307	706
1	1295	707
1	1288	708
1	1281	709
1	1280	710
1	1292	711
1	1310	712
1	1330	713
1	1354	714
1	1384	715
1	1417	716
1	1443	717
1	1463	718
1	1476	719
1	1494	720
1	1503	721
1	1506	722
1	1508	723
1	1508	724
1	1497	725
1	1474	726
1	1424	727
1	1360	728
1	1306	729
1	1249	730
1	1210	731
1	1168	732
1	1142	733
1	1136	734
1	1139	735
1	1160	736
1	1181	737
1	1207	738
1	1235	739
1	1266	740
1	1289	741
1	1309	742
1	1327	743
1	1333	744
1	1332	745
1	1327	746
1	1323	747
1	1331	748
1	1333	749
1	1338	750
1	1341	751
1	1341	752
1	1338	753
1	1331	754
1	1323	755
1	1319	756
1	1315	757
1	1307	758
1	1293	759
1	1278	760
1	1255	761
1	1233	762
1	1214	763
1	1199	764
1	1188	765
1	1188	766
1	1187	767
1	1183	768
1	1176	769
1	1176	770
1	1188	771
1	1211	772
1	1233	773
1	1256	774
1	1283	775
1	1310	776
1	1346	777
1	1376	778
1	1404	779
1	1424	780
1	1437	781
1	1434	782
1	1424	783
1	1418	784
1	1414	785
1	1412	786
1	1410	787
1	1406	788
1	1401	789
1	1398	790
1	1380	791
1	1366	792
1	1350	793
1	1332	794
1	1319	795
1	1301	796
1	1280	797
1	1258	798
1	1241	799
1	1229	800
1	1215	801
1	1205	802
1	1191	803
1	1176	804
1	1162	805
1	1146	806
1	1142	807
1	1142	808
1	1145	809
1	1151	810
1	1147	811
1	1141	812
1	1141	813
1	1152	814
1	1173	815
1	1204	816
1	1241	817
1	1274	818
1	1296	819
1	1307	820
1	1301	821
1	1292	822
1	1284	823
1	1281	824
1	1285	825
1	1289	826
1	1282	827
1	1269	828
1	1249	829
1	1228	830
1	1222	831
1	1222	832
1	1229	833
1	1240	834
1	1252	835
1	1267	836
1	1280	837
1	1291	838
1	1301	839
1	1207	860
1	1201	861
1	1210	862
1	1220	863
1	1232	864
1	1233	865
1	1224	866
1	1215	867
1	1211	868
1	1215	869
1	1228	870
1	1239	871
1	1259	872
1	1286	873
1	1317	874
1	1343	875
1	1374	876
1	1409	877
1	1438	878
1	1467	879
1	1485	880
1	1487	881
1	1477	882
1	1463	883
1	1432	884
1	1398	885
1	1354	886
1	1308	887
1	1266	888
1	1228	889
1	1201	890
1	1185	891
1	1184	892
1	1194	893
1	1219	894
1	1247	895
1	1275	896
1	1312	897
1	1346	898
1	1377	899
1	1309	840
1	1314	841
1	1305	842
1	1293	843
1	1293	844
1	1301	845
1	1303	846
1	1301	847
1	1292	848
1	1278	849
1	1264	850
1	1244	851
1	1232	852
1	1227	853
1	1226	854
1	1224	855
1	1233	856
1	1230	857
1	1227	858
1	1218	859
1	1409	900
1	1423	901
1	1430	902
1	1438	903
1	1439	904
1	1434	905
1	1423	906
1	1409	907
1	1396	908
1	1377	909
1	1371	910
1	1367	911
1	1371	912
1	1377	913
1	1393	914
1	1410	915
1	1425	916
1	1437	917
1	1442	918
1	1436	919
1	1421	920
1	1397	921
1	1368	922
1	1344	923
1	1323	924
1	1308	925
1	1293	926
1	1287	927
1	1284	928
1	1287	929
1	1305	930
1	1330	931
1	1350	932
1	1381	933
1	1425	934
1	1463	935
1	1501	936
1	1528	937
1	1550	938
1	1566	939
1	1577	940
1	1569	941
1	1563	942
1	1554	943
1	1538	944
1	1526	945
1	1504	946
1	1476	947
1	1451	948
1	1436	949
1	1424	950
1	1407	951
1	1400	952
1	1398	953
1	1397	954
1	1396	955
1	1384	956
1	1384	957
1	1384	958
1	1392	959
1	1394	960
1	1397	961
1	1396	962
1	1384	963
1	1373	964
1	1360	965
1	1348	966
1	1341	967
1	1332	968
1	1323	969
1	1328	970
1	1333	971
1	1348	972
1	1376	973
1	1411	974
1	1450	975
1	1487	976
1	1517	977
1	1536	978
1	1542	979
1	1536	980
1	1524	981
1	1507	982
1	1490	983
1	1478	984
1	1466	985
1	1450	986
1	1442	987
1	1439	988
1	1437	989
1	1439	990
1	1441	991
1	1443	992
1	1448	993
1	1457	994
1	1475	995
1	1495	996
1	1523	997
1	1547	998
1	1559	999
1	1567	1000
1	1559	1001
1	1550	1002
1	1543	1003
1	1529	1004
1	1517	1005
1	1494	1006
1	1476	1007
1	1456	1008
1	1439	1009
1	1432	1010
1	1433	1011
1	1435	1012
1	1443	1013
1	1456	1014
1	1475	1015
1	1489	1016
1	1508	1017
1	1530	1018
1	1548	1019
1	1678	1040
1	1712	1041
1	1742	1042
1	1768	1043
1	1791	1044
1	1817	1045
1	1827	1046
1	1839	1047
1	1853	1048
1	1872	1049
1	1896	1050
1	1929	1051
1	1951	1052
1	1977	1053
1	2007	1054
1	2036	1055
1	2054	1056
1	2062	1057
1	2054	1058
1	2041	1059
1	1564	1020
1	1571	1021
1	1574	1022
1	1569	1023
1	1561	1024
1	1552	1025
1	1526	1026
1	1492	1027
1	1455	1028
1	1420	1029
1	1379	1030
1	1368	1031
1	1368	1032
1	1384	1033
1	1422	1034
1	1458	1035
1	1502	1036
1	1542	1037
1	1585	1038
1	1634	1039
1	2021	1060
1	1976	1061
1	1924	1062
1	1868	1063
1	1802	1064
1	1742	1065
1	1687	1066
1	1638	1067
1	1607	1068
1	1596	1069
1	1598	1070
1	1616	1071
1	1639	1072
1	1664	1073
1	1687	1074
1	1711	1075
1	1733	1076
1	1755	1077
1	1775	1078
1	1778	1079
1	1777	1080
1	1766	1081
1	1751	1082
1	1734	1083
1	1714	1084
1	1694	1085
1	1665	1086
1	1635	1087
1	1607	1088
1	1585	1089
1	1566	1090
1	1550	1091
1	1551	1092
1	1566	1093
1	1584	1094
1	1610	1095
1	1631	1096
1	1643	1097
1	1656	1098
1	1663	1099
1	1669	1100
1	1660	1101
1	1654	1102
1	1645	1103
1	1634	1104
1	1621	1105
1	1598	1106
1	1583	1107
1	1567	1108
1	1555	1109
1	1555	1110
1	1551	1111
1	1544	1112
1	1541	1113
1	1544	1114
1	1554	1115
1	1571	1116
1	1589	1117
1	1609	1118
1	1629	1119
1	1647	1120
1	1658	1121
1	1660	1122
1	1659	1123
1	1656	1124
1	1661	1125
1	1664	1126
1	1669	1127
1	1674	1128
1	1674	1129
1	1662	1130
1	1657	1131
1	1647	1132
1	1643	1133
1	1647	1134
1	1656	1135
1	1662	1136
1	1677	1137
1	1692	1138
1	1710	1139
1	1728	1140
1	1746	1141
1	1760	1142
1	1764	1143
1	1764	1144
1	1762	1145
1	1742	1146
1	1717	1147
1	1688	1148
1	1667	1149
1	1651	1150
1	1634	1151
1	1634	1152
1	1637	1153
1	1638	1154
1	1643	1155
1	1652	1156
1	1665	1157
1	1693	1158
1	1723	1159
1	1752	1160
1	1783	1161
1	1814	1162
1	1831	1163
1	1828	1164
1	1815	1165
1	1785	1166
1	1754	1167
1	1725	1168
1	1695	1169
1	1675	1170
1	1651	1171
1	1636	1172
1	1634	1173
1	1638	1174
1	1656	1175
1	1679	1176
1	1710	1177
1	1743	1178
1	1778	1179
1	1814	1180
1	1834	1181
1	1848	1182
1	1856	1183
1	1855	1184
1	1849	1185
1	1836	1186
1	1818	1187
1	1798	1188
1	1781	1189
1	1760	1190
1	1747	1191
1	1739	1192
1	1741	1193
1	1746	1194
1	1751	1195
1	1752	1196
1	1756	1197
1	1760	1198
1	1755	1199
1	1762	1200
1	1763	1201
1	1764	1202
1	1765	1203
1	1780	1204
1	1796	1205
1	1817	1206
1	1837	1207
1	1845	1208
1	1855	1209
1	1856	1210
1	1848	1211
1	1843	1212
1	1834	1213
1	1818	1214
1	1817	1215
1	1816	1216
1	1829	1217
1	1846	1218
1	1865	1219
1	1881	1220
1	1895	1221
1	1898	1222
1	1903	1223
1	1906	1224
1	1906	1225
1	1895	1226
1	1877	1227
1	1857	1228
1	1838	1229
1	1828	1230
1	1843	1231
1	1854	1232
1	1869	1233
1	1895	1234
1	1908	1235
1	1927	1236
1	1947	1237
1	1953	1238
1	1958	1239
1	1956	1240
1	1947	1241
1	1935	1242
1	1914	1243
1	1890	1244
1	1862	1245
1	1841	1246
1	1817	1247
1	1791	1248
1	1790	1249
1	1791	1250
1	1790	1251
1	1790	1252
1	1781	1253
1	1764	1254
1	1750	1255
1	1733	1256
1	1718	1257
1	1709	1258
1	1708	1259
1	1726	1260
1	1772	1261
1	1834	1262
1	1898	1263
1	1965	1264
1	2024	1265
1	2079	1266
1	2132	1267
1	2181	1268
1	2220	1269
1	2254	1270
1	2273	1271
1	2290	1272
1	2303	1273
1	2309	1274
1	2314	1275
1	2310	1276
1	2299	1277
1	2280	1278
1	2255	1279
1	2214	1280
1	2183	1281
1	2147	1282
1	2114	1283
1	2084	1284
1	2060	1285
1	2030	1286
1	2012	1287
1	2000	1288
1	1989	1289
1	1992	1290
1	1995	1291
1	2002	1292
1	2016	1293
1	2035	1294
1	2060	1295
1	2088	1296
1	2119	1297
1	2147	1298
1	2160	1299
1	2163	1300
1	2150	1301
1	2136	1302
1	2127	1303
1	2109	1304
1	2101	1305
1	2084	1306
1	2070	1307
1	2061	1308
1	2051	1309
1	2045	1310
1	2036	1311
1	2026	1312
1	2013	1313
1	1998	1314
1	1976	1315
1	1957	1316
1	1947	1317
1	1944	1318
1	1942	1319
1	1948	1320
1	1944	1321
1	1935	1322
1	1927	1323
1	1927	1324
1	1926	1325
1	1931	1326
1	1937	1327
1	1949	1328
1	1965	1329
1	1974	1330
1	1991	1331
1	2012	1332
1	2031	1333
1	2055	1334
1	2078	1335
1	2097	1336
1	2111	1337
1	2109	1338
1	2113	1339
1	2115	1340
1	2105	1341
1	2084	1342
1	2055	1343
1	2019	1344
1	1978	1345
1	1935	1346
1	1901	1347
1	1877	1348
1	1860	1349
1	1847	1350
1	1843	1351
1	1836	1352
1	1826	1353
1	1817	1354
1	1808	1355
1	1798	1356
1	1790	1357
1	1787	1358
1	1791	1359
1	2061	1380
1	2057	1381
1	2050	1382
1	2032	1383
1	2012	1384
1	1989	1385
1	1962	1386
1	1930	1387
1	1899	1388
1	1878	1389
1	1858	1390
1	1843	1391
1	1842	1392
1	1851	1393
1	1869	1394
1	1898	1395
1	1934	1396
1	1972	1397
1	2003	1398
1	2026	1399
1	1798	1360
1	1798	1361
1	1803	1362
1	1818	1363
1	1834	1364
1	1856	1365
1	1873	1366
1	1895	1367
1	1911	1368
1	1929	1369
1	1948	1370
1	1972	1371
1	1998	1372
1	2012	1373
1	2024	1374
1	2034	1375
1	2034	1376
1	2039	1377
1	2051	1378
1	2053	1379
1	2043	1400
1	2053	1401
1	2058	1402
1	2057	1403
1	2047	1404
1	2026	1405
1	1992	1406
1	1958	1407
1	1931	1408
1	1904	1409
1	1888	1410
1	1872	1411
1	1860	1412
1	1852	1413
1	1841	1414
1	1837	1415
1	1839	1416
1	1850	1417
1	1858	1418
1	1870	1419
1	1885	1420
1	1892	1421
1	1898	1422
1	1910	1423
1	1919	1424
1	1922	1425
1	1921	1426
1	1913	1427
1	1908	1428
1	1904	1429
1	1895	1430
1	1904	1431
1	1926	1432
1	1953	1433
1	1989	1434
1	2024	1435
1	2057	1436
1	2089	1437
1	2111	1438
1	2122	1439
1	2120	1440
1	2112	1441
1	2104	1442
1	2084	1443
1	2078	1444
1	2063	1445
1	2040	1446
1	2016	1447
1	2000	1448
1	1987	1449
1	1976	1450
1	1969	1451
1	1973	1452
1	1985	1453
1	1999	1454
1	2013	1455
1	2031	1456
1	2042	1457
1	2048	1458
1	2045	1459
1	2045	1460
1	2040	1461
1	2031	1462
1	2021	1463
1	2009	1464
1	1999	1465
1	1978	1466
1	1961	1467
1	1944	1468
1	1926	1469
1	1917	1470
1	1900	1471
1	1894	1472
1	1891	1473
1	1896	1474
1	1909	1475
1	1925	1476
1	1945	1477
1	1962	1478
1	1980	1479
1	1999	1480
1	2008	1481
1	2019	1482
1	2028	1483
1	2030	1484
1	2034	1485
1	2027	1486
1	2016	1487
1	2003	1488
1	1989	1489
1	1976	1490
1	1965	1491
1	1958	1492
1	1953	1493
1	1952	1494
1	1950	1495
1	1937	1496
1	1925	1497
1	1919	1498
1	1907	1499
1	1906	1500
1	1908	1501
1	1917	1502
1	1926	1503
1	1947	1504
1	1973	1505
1	1997	1506
1	2010	1507
1	2020	1508
1	2026	1509
1	2035	1510
1	2035	1511
1	2048	1512
1	2067	1513
1	2084	1514
1	2106	1515
1	2127	1516
1	2137	1517
1	2143	1518
1	2147	1519
1	2146	1520
1	2140	1521
1	2124	1522
1	2097	1523
1	2066	1524
1	2040	1525
1	2009	1526
1	1985	1527
1	1965	1528
1	1949	1529
1	1947	1530
1	1957	1531
1	1960	1532
1	1973	1533
1	1996	1534
1	2006	1535
1	2013	1536
1	2009	1537
1	2012	1538
1	2016	1539
1	2016	1540
1	2013	1541
1	2006	1542
1	1995	1543
1	1980	1544
1	1962	1545
1	1943	1546
1	1922	1547
1	1904	1548
1	1887	1549
1	1884	1550
1	1877	1551
1	1873	1552
1	1873	1553
1	1883	1554
1	1896	1555
1	1910	1556
1	1932	1557
1	1959	1558
1	1989	1559
1	2019	1560
1	2048	1561
1	2058	1562
1	2061	1563
1	2061	1564
1	2053	1565
1	2050	1566
1	2045	1567
1	2042	1568
1	2035	1569
1	2026	1570
1	2007	1571
1	2000	1572
1	1995	1573
1	1988	1574
1	1989	1575
1	1986	1576
1	1985	1577
1	1986	1578
1	1994	1579
1	2000	1580
1	1999	1581
1	1987	1582
1	1971	1583
1	1949	1584
1	1927	1585
1	1901	1586
1	1885	1587
1	1877	1588
1	1873	1589
1	1885	1590
1	1895	1591
1	1911	1592
1	1934	1593
1	1957	1594
1	1974	1595
1	1994	1596
1	2009	1597
1	2018	1598
1	2017	1599
1	2012	1600
1	1999	1601
1	1982	1602
1	1961	1603
1	1932	1604
1	1913	1605
1	1893	1606
1	1872	1607
1	1860	1608
1	1856	1609
1	1867	1610
1	1886	1611
1	1913	1612
1	1945	1613
1	1975	1614
1	2011	1615
1	2031	1616
1	2059	1617
1	2079	1618
1	2094	1619
1	2109	1620
1	2105	1621
1	2092	1622
1	2068	1623
1	2040	1624
1	2001	1625
1	1971	1626
1	1947	1627
1	1922	1628
1	1909	1629
1	1895	1630
1	1886	1631
1	1877	1632
1	1875	1633
1	1880	1634
1	1886	1635
1	1895	1636
1	1911	1637
1	1919	1638
1	1944	1639
1	1950	1640
1	1958	1641
1	1958	1642
1	1957	1643
1	1953	1644
1	1949	1645
1	1934	1646
1	1921	1647
1	1907	1648
1	1892	1649
1	1869	1650
1	1858	1651
1	1850	1652
1	1861	1653
1	1895	1654
1	1931	1655
1	1968	1656
1	2003	1657
1	2039	1658
1	2066	1659
1	2070	1680
1	2050	1681
1	2025	1682
1	2002	1683
1	1974	1684
1	1949	1685
1	1920	1686
1	1888	1687
1	1863	1688
1	1848	1689
1	1849	1690
1	1860	1691
1	1880	1692
1	1908	1693
1	1940	1694
1	1978	1695
1	2012	1696
1	2043	1697
1	2066	1698
1	2081	1699
1	2079	1660
1	2081	1661
1	2079	1662
1	2079	1663
1	2071	1664
1	2067	1665
1	2050	1666
1	2027	1667
1	2007	1668
1	1989	1669
1	1973	1670
1	1970	1671
1	1974	1672
1	1985	1673
1	2006	1674
1	2028	1675
1	2045	1676
1	2065	1677
1	2076	1678
1	2075	1679
1	2089	1700
1	2088	1701
1	2078	1702
1	2058	1703
1	2031	1704
1	2000	1705
1	1959	1706
1	1921	1707
1	1886	1708
1	1856	1709
1	1843	1710
1	1826	1711
1	1828	1712
1	1849	1713
1	1880	1714
1	1921	1715
1	1971	1716
1	2025	1717
1	2075	1718
1	2108	1719
1	2131	1720
1	2131	1721
1	2129	1722
1	2115	1723
1	2093	1724
1	2070	1725
1	2037	1726
1	2010	1727
1	1988	1728
1	1974	1729
1	1963	1730
1	1958	1731
1	1962	1732
1	1966	1733
1	1967	1734
1	1969	1735
1	1974	1736
1	1981	1737
1	1989	1738
1	1986	1739
1	1979	1740
1	1965	1741
1	1937	1742
1	1908	1743
1	1872	1744
1	1849	1745
1	1821	1746
1	1800	1747
1	1789	1748
1	1777	1749
1	1767	1750
1	1763	1751
1	1764	1752
1	1778	1753
1	1791	1754
1	1811	1755
1	1831	1756
1	1848	1757
1	1869	1758
1	1882	1759
1	1890	1760
1	1891	1761
1	1883	1762
1	1877	1763
1	1869	1764
1	1861	1765
1	1846	1766
1	1845	1767
1	1850	1768
1	1858	1769
1	1875	1770
1	1890	1771
1	1904	1772
1	1918	1773
1	1928	1774
1	1944	1775
1	1953	1776
1	1962	1777
1	1970	1778
1	1973	1779
1	1971	1800
1	1952	1801
1	1935	1802
1	1922	1803
1	1908	1804
1	1903	1805
1	1895	1806
1	1883	1807
1	1869	1808
1	1870	1809
1	1877	1810
1	1895	1811
1	1907	1812
1	1920	1813
1	1923	1814
1	1934	1815
1	1937	1816
1	1948	1817
1	1949	1818
1	1948	1819
1	1939	1800
1	1929	1801
1	1909	1802
1	1892	1803
1	1868	1804
1	1843	1805
1	1818	1806
1	1791	1807
1	1773	1808
1	1757	1809
1	1741	1810
1	1728	1811
1	1728	1812
1	1740	1813
1	1760	1814
1	1775	1815
1	1800	1816
1	1827	1817
1	1856	1818
1	1886	1819
1	1911	1820
1	1932	1821
1	1942	1822
1	1944	1823
1	1935	1824
1	1920	1825
1	1895	1826
1	1883	1827
1	1872	1828
1	1868	1829
1	1872	1830
1	1896	1831
1	1922	1832
1	1958	1833
1	2014	1834
1	2066	1835
1	2120	1836
1	2171	1837
1	2222	1838
1	2264	1839
1	2288	1840
1	2297	1841
1	2289	1842
1	2273	1843
1	2244	1844
1	2205	1845
1	2160	1846
1	2124	1847
1	2097	1848
1	2086	1849
1	2078	1850
1	2079	1851
1	2086	1852
1	2099	1853
1	2111	1854
1	2129	1855
1	2135	1856
1	2143	1857
1	2137	1858
1	2124	1859
1	2104	1860
1	2084	1861
1	2057	1862
1	2023	1863
1	1989	1864
1	1953	1865
1	1922	1866
1	1886	1867
1	1854	1868
1	1822	1869
1	1791	1870
1	1767	1871
1	1762	1872
1	1763	1873
1	1767	1874
1	1791	1875
1	1819	1876
1	1849	1877
1	1874	1878
1	1897	1879
1	1922	1900
1	1916	1901
1	1907	1902
1	1895	1903
1	1878	1904
1	1857	1905
1	1848	1906
1	1835	1907
1	1822	1908
1	1817	1909
1	1817	1910
1	1816	1911
1	1815	1912
1	1814	1913
1	1811	1914
1	1801	1915
1	1787	1916
1	1778	1917
1	1772	1918
1	1773	1919
1	1913	1880
1	1919	1881
1	1913	1882
1	1904	1883
1	1888	1884
1	1877	1885
1	1855	1886
1	1835	1887
1	1815	1888
1	1800	1889
1	1791	1890
1	1795	1891
1	1795	1892
1	1803	1893
1	1815	1894
1	1826	1895
1	1845	1896
1	1872	1897
1	1899	1898
1	1913	1899
1	1775	1920
1	1778	1921
1	1770	1922
1	1760	1923
1	1749	1924
1	1739	1925
1	1734	1926
1	1731	1927
1	1733	1928
1	1738	1929
1	1742	1930
1	1751	1931
1	1762	1932
1	1775	1933
1	1790	1934
1	1799	1935
1	1811	1936
1	1831	1937
1	1856	1938
1	1886	1939
1	1875	1960
1	1865	1961
1	1856	1962
1	1849	1963
1	1843	1964
1	1847	1965
1	1841	1966
1	1830	1967
1	1822	1968
1	1818	1969
1	1817	1970
1	1816	1971
1	1814	1972
1	1817	1973
1	1822	1974
1	1827	1975
1	1821	1976
1	1821	1977
1	1827	1978
1	1839	1979
1	1856	1980
1	1867	1981
1	1865	1982
1	1856	1983
1	1844	1984
1	1836	1985
1	1827	1986
1	1817	1987
1	1813	1988
1	1812	1989
1	1816	1990
1	1818	1991
1	1834	1992
1	1856	1993
1	1874	1994
1	1895	1995
1	1920	1996
1	1935	1997
1	1946	1998
1	1949	1999
1	1949	2000
1	1949	2001
1	1944	2002
1	1929	2003
1	1912	2004
1	1895	2005
1	1870	2006
1	1848	2007
1	1819	2008
1	1783	2009
1	1757	2010
1	1749	2011
1	1735	2012
1	1721	2013
1	1716	2014
1	1725	2015
1	1744	2016
1	1772	2017
1	1808	2018
1	1837	2019
1	1905	1940
1	1912	1941
1	1906	1942
1	1897	1943
1	1893	1944
1	1883	1945
1	1866	1946
1	1849	1947
1	1835	1948
1	1829	1949
1	1834	1950
1	1848	1951
1	1859	1952
1	1868	1953
1	1877	1954
1	1885	1955
1	1891	1956
1	1893	1957
1	1891	1958
1	1883	1959
1	1861	2020
1	1874	2021
1	1885	2022
1	1888	2023
1	1887	2024
1	1895	2025
1	1890	2026
1	1886	2027
1	1893	2028
1	1898	2029
1	1899	2030
1	1908	2031
1	1922	2032
1	1933	2033
1	1952	2034
1	1971	2035
1	1988	2036
1	2000	2037
1	2011	2038
1	2016	2039
1	1990	2060
1	1998	2061
1	1993	2062
1	1982	2063
1	1963	2064
1	1943	2065
1	1906	2066
1	1879	2067
1	1861	2068
1	1856	2069
1	1865	2070
1	1877	2071
1	1904	2072
1	1942	2073
1	1975	2074
1	2009	2075
1	2039	2076
1	2064	2077
1	2080	2078
1	2091	2079
1	2091	2080
1	2076	2081
1	2058	2082
1	2039	2083
1	2012	2084
1	1988	2085
1	1958	2086
1	1930	2087
1	1908	2088
1	1895	2089
1	1895	2090
1	1891	2091
1	1901	2092
1	1913	2093
1	1926	2094
1	1944	2095
1	1955	2096
1	1967	2097
1	1980	2098
1	1991	2099
1	2013	2040
1	1999	2041
1	1972	2042
1	1944	2043
1	1924	2044
1	1908	2045
1	1891	2046
1	1873	2047
1	1866	2048
1	1865	2049
1	1868	2050
1	1869	2051
1	1878	2052
1	1893	2053
1	1901	2054
1	1914	2055
1	1932	2056
1	1947	2057
1	1961	2058
1	1975	2059
1	2000	2100
1	2014	2101
1	2022	2102
1	2024	2103
1	2019	2104
1	2004	2105
1	1982	2106
1	1953	2107
1	1919	2108
1	1882	2109
1	1849	2110
1	1817	2111
1	1799	2112
1	1796	2113
1	1803	2114
1	1817	2115
1	1842	2116
1	1857	2117
1	1874	2118
1	1885	2119
1	1917	2140
1	1911	2141
1	1899	2142
1	1881	2143
1	1852	2144
1	1817	2145
1	1778	2146
1	1749	2147
1	1724	2148
1	1711	2149
1	1698	2150
1	1697	2151
1	1699	2152
1	1710	2153
1	1718	2154
1	1734	2155
1	1740	2156
1	1746	2157
1	1751	2158
1	1747	2159
1	1891	2120
1	1885	2121
1	1871	2122
1	1849	2123
1	1818	2124
1	1785	2125
1	1744	2126
1	1712	2127
1	1687	2128
1	1675	2129
1	1682	2130
1	1705	2131
1	1725	2132
1	1751	2133
1	1782	2134
1	1809	2135
1	1842	2136
1	1865	2137
1	1890	2138
1	1908	2139
1	1742	2160
1	1739	2161
1	1736	2162
1	1730	2163
1	1724	2164
1	1715	2165
1	1704	2166
1	1688	2167
1	1671	2168
1	1655	2169
1	1647	2170
1	1644	2171
1	1652	2172
1	1667	2173
1	1685	2174
1	1706	2175
1	1720	2176
1	1738	2177
1	1753	2178
1	1765	2179
1	1780	2180
1	1782	2181
1	1777	2182
1	1772	2183
1	1775	2184
1	1778	2185
1	1775	2186
1	1773	2187
1	1770	2188
1	1769	2189
1	1774	2190
1	1771	2191
1	1764	2192
1	1762	2193
1	1764	2194
1	1774	2195
1	1783	2196
1	1791	2197
1	1795	2198
1	1796	2199
1	1797	2200
1	1785	2201
1	1765	2202
1	1748	2203
1	1728	2204
1	1710	2205
1	1694	2206
1	1675	2207
1	1660	2208
1	1651	2209
1	1647	2210
1	1648	2211
1	1660	2212
1	1681	2213
1	1707	2214
1	1738	2215
1	1762	2216
1	1783	2217
1	1809	2218
1	1820	2219
1	1831	2220
1	1842	2221
1	1831	2222
1	1817	2223
1	1789	2224
1	1760	2225
1	1731	2226
1	1700	2227
1	1675	2228
1	1654	2229
1	1628	2230
1	1620	2231
1	1615	2232
1	1611	2233
1	1618	2234
1	1631	2235
1	1647	2236
1	1673	2237
1	1703	2238
1	1736	2239
1	1759	2240
1	1778	2241
1	1787	2242
1	1785	2243
1	1772	2244
1	1751	2245
1	1718	2246
1	1688	2247
1	1662	2248
1	1647	2249
1	1641	2250
1	1649	2251
1	1660	2252
1	1678	2253
1	1697	2254
1	1719	2255
1	1739	2256
1	1767	2257
1	1795	2258
1	1823	2259
1	1843	2260
1	1848	2261
1	1848	2262
1	1843	2263
1	1830	2264
1	1819	2265
1	1812	2266
1	1815	2267
1	1814	2268
1	1817	2269
1	1818	2270
1	1826	2271
1	1832	2272
1	1839	2273
1	1843	2274
1	1843	2275
1	1833	2276
1	1828	2277
1	1818	2278
1	1796	2279
1	1782	2280
1	1755	2281
1	1734	2282
1	1712	2283
1	1697	2284
1	1686	2285
1	1675	2286
1	1672	2287
1	1676	2288
1	1679	2289
1	1685	2290
1	1686	2291
1	1695	2292
1	1708	2293
1	1720	2294
1	1738	2295
1	1760	2296
1	1779	2297
1	1792	2298
1	1800	2299
1	1799	2300
1	1791	2301
1	1775	2302
1	1755	2303
1	1737	2304
1	1716	2305
1	1694	2306
1	1676	2307
1	1662	2308
1	1652	2309
1	1652	2310
1	1664	2311
1	1682	2312
1	1697	2313
1	1727	2314
1	1764	2315
1	1791	2316
1	1818	2317
1	1842	2318
1	1856	2319
1	1866	2320
1	1861	2321
1	1854	2322
1	1843	2323
1	1829	2324
1	1815	2325
1	1789	2326
1	1762	2327
1	1744	2328
1	1735	2329
1	1726	2330
1	1728	2331
1	1734	2332
1	1741	2333
1	1754	2334
1	1773	2335
1	1801	2336
1	1832	2337
1	1856	2338
1	1868	2339
1	1865	2340
1	1852	2341
1	1831	2342
1	1808	2343
1	1786	2344
1	1763	2345
1	1738	2346
1	1717	2347
1	1697	2348
1	1686	2349
1	1679	2350
1	1674	2351
1	1685	2352
1	1710	2353
1	1744	2354
1	1780	2355
1	1822	2356
1	1850	2357
1	1868	2358
1	1878	2359
1	1873	2360
1	1867	2361
1	1854	2362
1	1841	2363
1	1825	2364
1	1814	2365
1	1790	2366
1	1770	2367
1	1755	2368
1	1738	2369
1	1732	2370
1	1727	2371
1	1729	2372
1	1739	2373
1	1754	2374
1	1769	2375
1	1791	2376
1	1821	2377
1	1854	2378
1	1871	2379
1	1858	2400
1	1856	2401
1	1843	2402
1	1827	2403
1	1812	2404
1	1792	2405
1	1780	2406
1	1764	2407
1	1752	2408
1	1747	2409
1	1743	2410
1	1738	2411
1	1738	2412
1	1742	2413
1	1744	2414
1	1743	2415
1	1750	2416
1	1748	2417
1	1753	2418
1	1762	2419
1	1885	2380
1	1881	2381
1	1872	2382
1	1856	2383
1	1833	2384
1	1815	2385
1	1783	2386
1	1756	2387
1	1738	2388
1	1731	2389
1	1735	2390
1	1731	2391
1	1738	2392
1	1752	2393
1	1776	2394
1	1809	2395
1	1834	2396
1	1856	2397
1	1869	2398
1	1868	2399
1	1765	2420
1	1767	2421
1	1766	2422
1	1766	2423
1	1760	2424
1	1754	2425
1	1740	2426
1	1728	2427
1	1721	2428
1	1726	2429
1	1739	2430
1	1764	2431
1	1792	2432
1	1825	2433
1	1861	2434
1	1881	2435
1	1908	2436
1	1921	2437
1	1933	2438
1	1933	2439
1	1925	2440
1	1907	2441
1	1878	2442
1	1851	2443
1	1817	2444
1	1776	2445
1	1736	2446
1	1697	2447
1	1662	2448
1	1651	2449
1	1644	2450
1	1646	2451
1	1660	2452
1	1680	2453
1	1703	2454
1	1728	2455
1	1749	2456
1	1768	2457
1	1787	2458
1	1798	2459
1	1814	2460
1	1825	2461
1	1827	2462
1	1823	2463
1	1817	2464
1	1809	2465
1	1795	2466
1	1782	2467
1	1776	2468
1	1778	2469
1	1790	2470
1	1800	2471
1	1828	2472
1	1854	2473
1	1877	2474
1	1904	2475
1	1917	2476
1	1929	2477
1	1935	2478
1	1933	2479
1	1922	2480
1	1907	2481
1	1886	2482
1	1867	2483
1	1846	2484
1	1828	2485
1	1798	2486
1	1774	2487
1	1751	2488
1	1734	2489
1	1729	2490
1	1730	2491
1	1739	2492
1	1757	2493
1	1782	2494
1	1803	2495
1	1828	2496
1	1844	2497
1	1858	2498
1	1870	2499
1	1890	2500
1	1899	2501
1	1913	2502
1	1921	2503
1	1922	2504
1	1933	2505
1	1931	2506
1	1922	2507
1	1918	2508
1	1908	2509
1	1893	2510
1	1869	2511
1	1852	2512
1	1836	2513
1	1830	2514
1	1830	2515
1	1827	2516
1	1832	2517
1	1844	2518
1	1859	2519
1	1879	2520
1	1882	2521
1	1873	2522
1	1859	2523
1	1841	2524
1	1813	2525
1	1782	2526
1	1764	2527
1	1752	2528
1	1751	2529
1	1749	2530
1	1755	2531
1	1765	2532
1	1783	2533
1	1798	2534
1	1816	2535
1	1828	2536
1	1841	2537
1	1843	2538
1	1845	2539
1	1843	2540
1	1837	2541
1	1824	2542
1	1814	2543
1	1791	2544
1	1777	2545
1	1759	2546
1	1751	2547
1	1747	2548
1	1751	2549
1	1761	2550
1	1779	2551
1	1791	2552
1	1817	2553
1	1838	2554
1	1861	2555
1	1886	2556
1	1905	2557
1	1914	2558
1	1920	2559
1	1877	2580
1	1869	2581
1	1862	2582
1	1854	2583
1	1844	2584
1	1837	2585
1	1832	2586
1	1819	2587
1	1815	2588
1	1801	2589
1	1801	2590
1	1816	2591
1	1826	2592
1	1841	2593
1	1854	2594
1	1867	2595
1	1883	2596
1	1893	2597
1	1896	2598
1	1896	2599
1	1917	2560
1	1898	2561
1	1881	2562
1	1861	2563
1	1841	2564
1	1821	2565
1	1813	2566
1	1795	2567
1	1785	2568
1	1770	2569
1	1764	2570
1	1764	2571
1	1770	2572
1	1787	2573
1	1809	2574
1	1832	2575
1	1846	2576
1	1863	2577
1	1872	2578
1	1874	2579
1	1893	2600
1	1881	2601
1	1865	2602
1	1844	2603
1	1818	2604
1	1795	2605
1	1775	2606
1	1757	2607
1	1751	2608
1	1749	2609
1	1754	2610
1	1772	2611
1	1788	2612
1	1812	2613
1	1836	2614
1	1859	2615
1	1877	2616
1	1890	2617
1	1895	2618
1	1897	2619
1	1906	2620
1	1908	2621
1	1919	2622
1	1932	2623
1	1938	2624
1	1943	2625
1	1948	2626
1	1944	2627
1	1934	2628
1	1919	2629
1	1896	2630
1	1890	2631
1	1881	2632
1	1872	2633
1	1873	2634
1	1880	2635
1	1890	2636
1	1903	2637
1	1913	2638
1	1914	2639
1	1914	2640
1	1908	2641
1	1900	2642
1	1893	2643
1	1888	2644
1	1881	2645
1	1875	2646
1	1868	2647
1	1862	2648
1	1859	2649
1	1865	2650
1	1870	2651
1	1884	2652
1	1895	2653
1	1895	2654
1	1891	2655
1	1894	2656
1	1894	2657
1	1893	2658
1	1881	2659
1	1867	2660
1	1852	2661
1	1837	2662
1	1824	2663
1	1816	2664
1	1796	2665
1	1773	2666
1	1752	2667
1	1738	2668
1	1727	2669
1	1727	2670
1	1740	2671
1	1759	2672
1	1788	2673
1	1823	2674
1	1857	2675
1	1890	2676
1	1919	2677
1	1946	2678
1	1960	2679
1	1899	2700
1	1897	2701
1	1880	2702
1	1856	2703
1	1830	2704
1	1793	2705
1	1763	2706
1	1734	2707
1	1710	2708
1	1689	2709
1	1683	2710
1	1680	2711
1	1698	2712
1	1736	2713
1	1777	2714
1	1826	2715
1	1872	2716
1	1912	2717
1	1947	2718
1	1970	2719
1	1963	2680
1	1947	2681
1	1930	2682
1	1906	2683
1	1877	2684
1	1847	2685
1	1824	2686
1	1795	2687
1	1778	2688
1	1770	2689
1	1765	2690
1	1765	2691
1	1767	2692
1	1770	2693
1	1786	2694
1	1814	2695
1	1836	2696
1	1859	2697
1	1881	2698
1	1895	2699
1	1987	2720
1	1992	2721
1	1985	2722
1	1971	2723
1	1944	2724
1	1910	2725
1	1863	2726
1	1819	2727
1	1777	2728
1	1743	2729
1	1728	2730
1	1728	2731
1	1723	2732
1	1727	2733
1	1742	2734
1	1751	2735
1	1776	2736
1	1790	2737
1	1812	2738
1	1832	2739
1	2346	2760
1	2341	2761
1	2313	2762
1	2274	2763
1	2222	2764
1	2183	2765
1	2139	2766
1	2098	2767
1	2053	2768
1	2016	2769
1	1986	2770
1	1960	2771
1	1948	2772
1	1945	2773
1	1950	2774
1	1960	2775
1	1970	2776
1	1967	2777
1	1957	2778
1	1939	2779
1	1854	2740
1	1870	2741
1	1886	2742
1	1896	2743
1	1903	2744
1	1908	2745
1	1908	2746
1	1908	2747
1	1916	2748
1	1929	2749
1	1948	2750
1	1982	2751
1	2026	2752
1	2076	2753
1	2129	2754
1	2177	2755
1	2222	2756
1	2275	2757
1	2317	2758
1	2341	2759
1	1917	2780
1	1895	2781
1	1874	2782
1	1850	2783
1	1818	2784
1	1773	2785
1	1735	2786
1	1704	2787
1	1695	2788
1	1694	2789
1	1704	2790
1	1733	2791
1	1756	2792
1	1787	2793
1	1820	2794
1	1849	2795
1	1878	2796
1	1904	2797
1	1925	2798
1	1936	2799
1	1935	2800
1	1919	2801
1	1895	2802
1	1873	2803
1	1849	2804
1	1819	2805
1	1791	2806
1	1764	2807
1	1738	2808
1	1728	2809
1	1729	2810
1	1744	2811
1	1769	2812
1	1794	2813
1	1825	2814
1	1854	2815
1	1870	2816
1	1895	2817
1	1912	2818
1	1922	2819
1	1919	2820
1	1912	2821
1	1893	2822
1	1865	2823
1	1832	2824
1	1796	2825
1	1766	2826
1	1742	2827
1	1728	2828
1	1724	2829
1	1733	2830
1	1736	2831
1	1744	2832
1	1757	2833
1	1775	2834
1	1798	2835
1	1836	2836
1	1855	2837
1	1879	2838
1	1896	2839
1	1902	2840
1	1900	2841
1	1891	2842
1	1871	2843
1	1845	2844
1	1816	2845
1	1775	2846
1	1744	2847
1	1719	2848
1	1706	2849
1	1701	2850
1	1712	2851
1	1720	2852
1	1738	2853
1	1760	2854
1	1783	2855
1	1816	2856
1	1838	2857
1	1854	2858
1	1863	2859
1	1870	2860
1	1867	2861
1	1863	2862
1	1860	2863
1	1850	2864
1	1834	2865
1	1821	2866
1	1802	2867
1	1791	2868
1	1785	2869
1	1785	2870
1	1792	2871
1	1814	2872
1	1831	2873
1	1854	2874
1	1880	2875
1	1899	2876
1	1915	2877
1	1925	2878
1	1926	2879
1	1924	2880
1	1922	2881
1	1903	2882
1	1885	2883
1	1867	2884
1	1849	2885
1	1841	2886
1	1831	2887
1	1827	2888
1	1818	2889
1	1822	2890
1	1831	2891
1	1838	2892
1	1843	2893
1	1846	2894
1	1852	2895
1	1868	2896
1	1875	2897
1	1883	2898
1	1883	2899
1	1880	2900
1	1869	2901
1	1851	2902
1	1835	2903
1	1814	2904
1	1787	2905
1	1755	2906
1	1736	2907
1	1721	2908
1	1714	2909
1	1721	2910
1	1736	2911
1	1746	2912
1	1761	2913
1	1779	2914
1	1801	2915
1	1825	2916
1	1845	2917
1	1860	2918
1	1865	2919
1	1913	2960
1	1900	2961
1	1883	2962
1	1860	2963
1	1842	2964
1	1829	2965
1	1817	2966
1	1817	2967
1	1819	2968
1	1835	2969
1	1853	2970
1	1881	2971
1	1896	2972
1	1916	2973
1	1934	2974
1	1955	2975
1	1975	2976
1	1999	2977
1	2016	2978
1	2028	2979
1	1960	3000
1	1958	3001
1	1946	3002
1	1927	3003
1	1913	3004
1	1901	3005
1	1895	3006
1	1883	3007
1	1869	3008
1	1856	3009
1	1850	3010
1	1843	3011
1	1844	3012
1	1852	3013
1	1863	3014
1	1878	3015
1	1901	3016
1	1917	3017
1	1934	3018
1	1948	3019
1	2035	2980
1	2026	2981
1	2017	2982
1	2003	2983
1	1984	2984
1	1965	2985
1	1948	2986
1	1920	2987
1	1891	2988
1	1873	2989
1	1859	2990
1	1868	2991
1	1880	2992
1	1896	2993
1	1916	2994
1	1934	2995
1	1946	2996
1	1958	2997
1	1961	2998
1	1962	2999
1	1870	2920
1	1868	2921
1	1862	2922
1	1849	2923
1	1832	2924
1	1816	2925
1	1816	2926
1	1817	2927
1	1821	2928
1	1827	2929
1	1838	2930
1	1841	2931
1	1854	2932
1	1869	2933
1	1885	2934
1	1897	2935
1	1908	2936
1	1916	2937
1	1919	2938
1	1918	2939
1	1919	2940
1	1926	2941
1	1906	2942
1	1896	2943
1	1886	2944
1	1869	2945
1	1855	2946
1	1844	2947
1	1838	2948
1	1831	2949
1	1832	2950
1	1832	2951
1	1841	2952
1	1854	2953
1	1869	2954
1	1887	2955
1	1906	2956
1	1912	2957
1	1919	2958
1	1920	2959
1	1958	3020
1	1962	3021
1	1960	3022
1	1950	3023
1	1936	3024
1	1922	3025
1	1897	3026
1	1882	3027
1	1871	3028
1	1859	3029
1	1850	3030
1	1851	3031
1	1839	3032
1	1845	3033
1	1850	3034
1	1856	3035
1	1857	3036
1	1860	3037
1	1856	3038
1	1847	3039
1	1837	3040
1	1817	3041
1	1790	3042
1	1764	3043
1	1736	3044
1	1705	3045
1	1686	3046
1	1654	3047
1	1635	3048
1	1633	3049
1	1634	3050
1	1649	3051
1	1661	3052
1	1682	3053
1	1703	3054
1	1734	3055
1	1763	3056
1	1791	3057
1	1812	3058
1	1816	3059
1	1803	3060
1	1792	3061
1	1775	3062
1	1755	3063
1	1731	3064
1	1706	3065
1	1686	3066
1	1667	3067
1	1652	3068
1	1649	3069
1	1654	3070
1	1656	3071
1	1660	3072
1	1664	3073
1	1670	3074
1	1679	3075
1	1688	3076
1	1687	3077
1	1686	3078
1	1679	3079
1	1665	3080
1	1651	3081
1	1634	3082
1	1611	3083
1	1598	3084
1	1587	3085
1	1579	3086
1	1581	3087
1	1598	3088
1	1615	3089
1	1632	3090
1	1656	3091
1	1672	3092
1	1687	3093
1	1705	3094
1	1714	3095
1	1713	3096
1	1712	3097
1	1703	3098
1	1693	3099
1	1680	3100
1	1660	3101
1	1644	3102
1	1631	3103
1	1612	3104
1	1596	3105
1	1581	3106
1	1559	3107
1	1544	3108
1	1533	3109
1	1529	3110
1	1536	3111
1	1553	3112
1	1570	3113
1	1589	3114
1	1608	3115
1	1630	3116
1	1657	3117
1	1683	3118
1	1697	3119
1	1701	3120
1	1706	3121
1	1700	3122
1	1686	3123
1	1667	3124
1	1649	3125
1	1629	3126
1	1607	3127
1	1586	3128
1	1571	3129
1	1566	3130
1	1565	3131
1	1580	3132
1	1598	3133
1	1613	3134
1	1628	3135
1	1641	3136
1	1634	3137
1	1639	3138
1	1647	3139
1	1647	3140
1	1649	3141
1	1654	3142
1	1652	3143
1	1642	3144
1	1626	3145
1	1602	3146
1	1576	3147
1	1552	3148
1	1533	3149
1	1528	3150
1	1529	3151
1	1538	3152
1	1554	3153
1	1570	3154
1	1593	3155
1	1616	3156
1	1641	3157
1	1661	3158
1	1683	3159
1	1695	3160
1	1695	3161
1	1692	3162
1	1683	3163
1	1660	3164
1	1637	3165
1	1618	3166
1	1592	3167
1	1571	3168
1	1562	3169
1	1560	3170
1	1572	3171
1	1593	3172
1	1618	3173
1	1643	3174
1	1660	3175
1	1670	3176
1	1681	3177
1	1686	3178
1	1686	3179
1	1679	3180
1	1675	3181
1	1660	3182
1	1641	3183
1	1615	3184
1	1589	3185
1	1556	3186
1	1526	3187
1	1497	3188
1	1479	3189
1	1476	3190
1	1492	3191
1	1529	3192
1	1576	3193
1	1625	3194
1	1670	3195
1	1711	3196
1	1738	3197
1	1757	3198
1	1764	3199
1	1765	3200
1	1759	3201
1	1743	3202
1	1723	3203
1	1701	3204
1	1678	3205
1	1652	3206
1	1629	3207
1	1608	3208
1	1592	3209
1	1577	3210
1	1571	3211
1	1566	3212
1	1571	3213
1	1581	3214
1	1603	3215
1	1632	3216
1	1660	3217
1	1679	3218
1	1688	3219
1	1692	3220
1	1677	3221
1	1660	3222
1	1644	3223
1	1634	3224
1	1626	3225
1	1622	3226
1	1613	3227
1	1608	3228
1	1608	3229
1	1611	3230
1	1613	3231
1	1625	3232
1	1634	3233
1	1645	3234
1	1651	3235
1	1659	3236
1	1661	3237
1	1660	3238
1	1651	3239
1	1643	3240
1	1633	3241
1	1611	3242
1	1597	3243
1	1581	3244
1	1562	3245
1	1551	3246
1	1535	3247
1	1521	3248
1	1517	3249
1	1517	3250
1	1517	3251
1	1528	3252
1	1546	3253
1	1565	3254
1	1584	3255
1	1610	3256
1	1628	3257
1	1637	3258
1	1647	3259
1	1635	3280
1	1618	3281
1	1606	3282
1	1584	3283
1	1560	3284
1	1535	3285
1	1514	3286
1	1490	3287
1	1476	3288
1	1468	3289
1	1476	3290
1	1494	3291
1	1518	3292
1	1545	3293
1	1571	3294
1	1592	3295
1	1602	3296
1	1615	3297
1	1634	3298
1	1649	3299
1	1655	3300
1	1662	3301
1	1660	3302
1	1648	3303
1	1634	3304
1	1616	3305
1	1607	3306
1	1600	3307
1	1599	3308
1	1600	3309
1	1599	3310
1	1599	3311
1	1600	3312
1	1606	3313
1	1610	3314
1	1620	3315
1	1634	3316
1	1646	3317
1	1652	3318
1	1652	3319
1	1655	3260
1	1659	3261
1	1647	3262
1	1634	3263
1	1610	3264
1	1592	3265
1	1564	3266
1	1542	3267
1	1523	3268
1	1512	3269
1	1509	3270
1	1523	3271
1	1536	3272
1	1556	3273
1	1581	3274
1	1603	3275
1	1622	3276
1	1633	3277
1	1638	3278
1	1639	3279
1	1644	3320
1	1625	3321
1	1594	3322
1	1567	3323
1	1538	3324
1	1503	3325
1	1463	3326
1	1431	3327
1	1409	3328
1	1400	3329
1	1401	3330
1	1417	3331
1	1437	3332
1	1453	3333
1	1490	3334
1	1530	3335
1	1560	3336
1	1594	3337
1	1621	3338
1	1644	3339
1	1647	3360
1	1660	3361
1	1660	3362
1	1658	3363
1	1649	3364
1	1634	3365
1	1616	3366
1	1606	3367
1	1598	3368
1	1594	3369
1	1593	3370
1	1584	3371
1	1582	3372
1	1584	3373
1	1590	3374
1	1592	3375
1	1602	3376
1	1607	3377
1	1609	3378
1	1613	3379
1	1618	3380
1	1621	3381
1	1621	3382
1	1607	3383
1	1589	3384
1	1565	3385
1	1537	3386
1	1513	3387
1	1494	3388
1	1479	3389
1	1475	3390
1	1481	3391
1	1492	3392
1	1505	3393
1	1528	3394
1	1555	3395
1	1581	3396
1	1599	3397
1	1620	3398
1	1636	3399
1	1661	3340
1	1674	3341
1	1676	3342
1	1667	3343
1	1656	3344
1	1634	3345
1	1615	3346
1	1573	3347
1	1546	3348
1	1530	3349
1	1520	3350
1	1508	3351
1	1503	3352
1	1503	3353
1	1507	3354
1	1525	3355
1	1544	3356
1	1574	3357
1	1605	3358
1	1631	3359
1	1647	3400
1	1643	3401
1	1630	3402
1	1607	3403
1	1581	3404
1	1554	3405
1	1526	3406
1	1498	3407
1	1476	3408
1	1464	3409
1	1463	3410
1	1472	3411
1	1481	3412
1	1497	3413
1	1514	3414
1	1534	3415
1	1553	3416
1	1575	3417
1	1593	3418
1	1607	3419
1	1612	3420
1	1616	3421
1	1607	3422
1	1594	3423
1	1582	3424
1	1572	3425
1	1558	3426
1	1546	3427
1	1530	3428
1	1513	3429
1	1507	3430
1	1499	3431
1	1502	3432
1	1514	3433
1	1530	3434
1	1553	3435
1	1574	3436
1	1594	3437
1	1616	3438
1	1634	3439
1	1639	3440
1	1636	3441
1	1628	3442
1	1607	3443
1	1589	3444
1	1571	3445
1	1549	3446
1	1531	3447
1	1520	3448
1	1508	3449
1	1503	3450
1	1503	3451
1	1503	3452
1	1505	3453
1	1514	3454
1	1528	3455
1	1544	3456
1	1559	3457
1	1573	3458
1	1580	3459
1	1568	3480
1	1569	3481
1	1559	3482
1	1553	3483
1	1544	3484
1	1541	3485
1	1537	3486
1	1535	3487
1	1537	3488
1	1535	3489
1	1542	3490
1	1555	3491
1	1567	3492
1	1580	3493
1	1592	3494
1	1602	3495
1	1615	3496
1	1620	3497
1	1611	3498
1	1600	3499
1	1579	3460
1	1562	3461
1	1546	3462
1	1528	3463
1	1508	3464
1	1500	3465
1	1499	3466
1	1490	3467
1	1490	3468
1	1490	3469
1	1498	3470
1	1512	3471
1	1527	3472
1	1541	3473
1	1551	3474
1	1558	3475
1	1563	3476
1	1571	3477
1	1577	3478
1	1574	3479
1	1580	3500
1	1555	3501
1	1530	3502
1	1507	3503
1	1484	3504
1	1463	3505
1	1442	3506
1	1424	3507
1	1413	3508
1	1415	3509
1	1423	3510
1	1443	3511
1	1464	3512
1	1489	3513
1	1508	3514
1	1529	3515
1	1546	3516
1	1561	3517
1	1580	3518
1	1592	3519
1	1581	3540
1	1555	3541
1	1528	3542
1	1503	3543
1	1478	3544
1	1454	3545
1	1432	3546
1	1407	3547
1	1395	3548
1	1392	3549
1	1399	3550
1	1410	3551
1	1430	3552
1	1456	3553
1	1493	3554
1	1535	3555
1	1580	3556
1	1612	3557
1	1646	3558
1	1667	3559
1	1593	3520
1	1582	3521
1	1571	3522
1	1560	3523
1	1551	3524
1	1542	3525
1	1541	3526
1	1539	3527
1	1540	3528
1	1544	3529
1	1556	3530
1	1559	3531
1	1569	3532
1	1579	3533
1	1590	3534
1	1599	3535
1	1607	3536
1	1611	3537
1	1611	3538
1	1598	3539
1	1679	3560
1	1674	3561
1	1660	3562
1	1634	3563
1	1607	3564
1	1580	3565
1	1547	3566
1	1526	3567
1	1503	3568
1	1484	3569
1	1469	3570
1	1464	3571
1	1462	3572
1	1461	3573
1	1469	3574
1	1478	3575
1	1489	3576
1	1502	3577
1	1514	3578
1	1529	3579
1	1542	3580
1	1551	3581
1	1556	3582
1	1559	3583
1	1555	3584
1	1544	3585
1	1533	3586
1	1519	3587
1	1508	3588
1	1511	3589
1	1513	3590
1	1520	3591
1	1529	3592
1	1543	3593
1	1557	3594
1	1581	3595
1	1598	3596
1	1620	3597
1	1638	3598
1	1650	3599
1	1656	3600
1	1660	3601
1	1652	3602
1	1642	3603
1	1633	3604
1	1620	3605
1	1600	3606
1	1581	3607
1	1565	3608
1	1553	3609
1	1544	3610
1	1537	3611
1	1530	3612
1	1530	3613
1	1544	3614
1	1566	3615
1	1603	3616
1	1638	3617
1	1670	3618
1	1692	3619
1	1701	3640
1	1701	3641
1	1685	3642
1	1651	3643
1	1607	3644
1	1551	3645
1	1487	3646
1	1422	3647
1	1354	3648
1	1296	3649
1	1258	3650
1	1246	3651
1	1248	3652
1	1283	3653
1	1322	3654
1	1374	3655
1	1425	3656
1	1476	3657
1	1525	3658
1	1565	3659
1	1594	3640
1	1618	3641
1	1634	3642
1	1647	3643
1	1647	3644
1	1643	3645
1	1630	3646
1	1610	3647
1	1593	3648
1	1580	3649
1	1562	3650
1	1555	3651
1	1554	3652
1	1554	3653
1	1565	3654
1	1581	3655
1	1598	3656
1	1611	3657
1	1623	3658
1	1628	3659
1	1620	3660
1	1611	3661
1	1596	3662
1	1576	3663
1	1555	3664
1	1530	3665
1	1510	3666
1	1490	3667
1	1469	3668
1	1450	3669
1	1437	3670
1	1430	3671
1	1429	3672
1	1435	3673
1	1440	3674
1	1450	3675
1	1463	3676
1	1472	3677
1	1476	3678
1	1476	3679
1	1479	3680
1	1479	3681
1	1472	3682
1	1462	3683
1	1445	3684
1	1425	3685
1	1398	3686
1	1373	3687
1	1359	3688
1	1350	3689
1	1351	3690
1	1359	3691
1	1373	3692
1	1398	3693
1	1422	3694
1	1441	3695
1	1462	3696
1	1485	3697
1	1500	3698
1	1513	3699
1	1528	3700
1	1537	3701
1	1544	3702
1	1553	3703
1	1555	3704
1	1555	3705
1	1560	3706
1	1559	3707
1	1557	3708
1	1556	3709
1	1559	3710
1	1568	3711
1	1581	3712
1	1590	3713
1	1602	3714
1	1610	3715
1	1619	3716
1	1626	3717
1	1633	3718
1	1633	3719
1	1626	3720
1	1619	3721
1	1600	3722
1	1580	3723
1	1557	3724
1	1543	3725
1	1535	3726
1	1533	3727
1	1538	3728
1	1553	3729
1	1576	3730
1	1602	3731
1	1637	3732
1	1678	3733
1	1721	3734
1	1764	3735
1	1822	3736
1	1870	3737
1	1917	3738
1	1952	3739
1	1974	3740
1	1983	3741
1	1973	3742
1	1944	3743
1	1898	3744
1	1848	3745
1	1782	3746
1	1724	3747
1	1683	3748
1	1658	3749
1	1647	3750
1	1662	3751
1	1670	3752
1	1681	3753
1	1686	3754
1	1693	3755
1	1698	3756
1	1699	3757
1	1701	3758
1	1698	3759
1	1688	3760
1	1665	3761
1	1644	3762
1	1618	3763
1	1594	3764
1	1569	3765
1	1554	3766
1	1533	3767
1	1518	3768
1	1503	3769
1	1498	3770
1	1492	3771
1	1492	3772
1	1497	3773
1	1503	3774
1	1512	3775
1	1517	3776
1	1526	3777
1	1531	3778
1	1533	3779
1	1529	3780
1	1528	3781
1	1515	3782
1	1503	3783
1	1490	3784
1	1474	3785
1	1453	3786
1	1437	3787
1	1424	3788
1	1419	3789
1	1420	3790
1	1420	3791
1	1424	3792
1	1431	3793
1	1440	3794
1	1456	3795
1	1488	3796
1	1514	3797
1	1539	3798
1	1555	3799
1	1566	3800
1	1566	3801
1	1562	3802
1	1553	3803
1	1533	3804
1	1518	3805
1	1500	3806
1	1487	3807
1	1476	3808
1	1466	3809
1	1454	3810
1	1448	3811
1	1438	3812
1	1436	3813
1	1441	3814
1	1452	3815
1	1462	3816
1	1476	3817
1	1489	3818
1	1497	3819
1	1691	3840
1	1689	3841
1	1678	3842
1	1659	3843
1	1634	3844
1	1603	3845
1	1569	3846
1	1535	3847
1	1503	3848
1	1471	3849
1	1446	3850
1	1425	3851
1	1424	3852
1	1431	3853
1	1447	3854
1	1467	3855
1	1500	3856
1	1528	3857
1	1554	3858
1	1575	3859
1	1503	3820
1	1507	3821
1	1515	3822
1	1516	3823
1	1510	3824
1	1507	3825
1	1508	3826
1	1508	3827
1	1513	3828
1	1521	3829
1	1529	3830
1	1541	3831
1	1558	3832
1	1581	3833
1	1603	3834
1	1620	3835
1	1638	3836
1	1659	3837
1	1675	3838
1	1686	3839
1	1581	3860
1	1579	3861
1	1571	3862
1	1556	3863
1	1539	3864
1	1519	3865
1	1502	3866
1	1494	3867
1	1497	3868
1	1503	3869
1	1521	3870
1	1543	3871
1	1563	3872
1	1584	3873
1	1607	3874
1	1626	3875
1	1647	3876
1	1667	3877
1	1686	3878
1	1695	3879
1	1694	3880
1	1674	3881
1	1645	3882
1	1610	3883
1	1571	3884
1	1526	3885
1	1480	3886
1	1437	3887
1	1409	3888
1	1397	3889
1	1395	3890
1	1402	3891
1	1420	3892
1	1440	3893
1	1468	3894
1	1503	3895
1	1537	3896
1	1561	3897
1	1582	3898
1	1602	3899
1	1611	3900
1	1623	3901
1	1626	3902
1	1623	3903
1	1621	3904
1	1620	3905
1	1613	3906
1	1611	3907
1	1611	3908
1	1618	3909
1	1624	3910
1	1626	3911
1	1633	3912
1	1644	3913
1	1659	3914
1	1672	3915
1	1686	3916
1	1689	3917
1	1697	3918
1	1694	3919
1	1690	3920
1	1682	3921
1	1665	3922
1	1654	3923
1	1635	3924
1	1620	3925
1	1597	3926
1	1583	3927
1	1571	3928
1	1565	3929
1	1559	3930
1	1568	3931
1	1570	3932
1	1584	3933
1	1598	3934
1	1607	3935
1	1611	3936
1	1611	3937
1	1607	3938
1	1607	3939
1	1610	3940
1	1615	3941
1	1616	3942
1	1620	3943
1	1620	3944
1	1619	3945
1	1615	3946
1	1612	3947
1	1616	3948
1	1633	3949
1	1645	3950
1	1662	3951
1	1682	3952
1	1698	3953
1	1721	3954
1	1742	3955
1	1753	3956
1	1764	3957
1	1770	3958
1	1770	3959
1	1761	3960
1	1753	3961
1	1742	3962
1	1728	3963
1	1712	3964
1	1695	3965
1	1680	3966
1	1663	3967
1	1657	3968
1	1652	3969
1	1654	3970
1	1647	3971
1	1644	3972
1	1645	3973
1	1647	3974
1	1660	3975
1	1675	3976
1	1687	3977
1	1697	3978
1	1702	3979
1	1710	3980
1	1712	3981
1	1718	3982
1	1721	3983
1	1725	3984
1	1733	3985
1	1731	3986
1	1729	3987
1	1723	3988
1	1712	3989
1	1700	3990
1	1701	3991
1	1693	3992
1	1699	3993
1	1701	3994
1	1711	3995
1	1723	3996
1	1735	3997
1	1741	3998
1	1747	3999
1	1750	4000
1	1739	4001
1	1736	4002
1	1720	4003
1	1699	4004
1	1672	4005
1	1652	4006
1	1631	4006
1	1608	4008
1	1596	4009
1	1593	4010
1	1599	4011
1	1602	4012
1	1608	4013
1	1623	4014
1	1638	4014
1	1647	4016
1	1656	4017
1	1661	4018
1	1661	4019
1	1660	4020
1	1660	4021
1	1655	4022
1	1647	4022
1	1631	4024
1	1617	4025
1	1607	4026
1	1600	4027
1	1585	4028
1	1570	4029
1	1555	4030
1	1544	4030
1	1543	4032
1	1554	4033
1	1566	4034
1	1585	4035
1	1602	4036
1	1611	4037
1	1615	4038
1	1618	4038
1	1611	4040
1	1598	4041
1	1575	4042
1	1546	4043
1	1516	4044
1	1490	4045
1	1463	4046
1	1437	4046
1	1419	4048
1	1403	4049
1	1395	4050
1	1398	4051
1	1402	4052
1	1415	4053
1	1429	4054
1	1445	4054
1	1464	4056
1	1479	4057
1	1499	4058
1	1512	4059
1	1526	4060
1	1529	4061
1	1530	4062
1	1529	4062
1	1521	4064
1	1508	4065
1	1497	4066
1	1476	4067
1	1462	4068
1	1448	4069
1	1435	4070
1	1432	4070
1	1435	4072
1	1443	4073
1	1451	4074
1	1462	4075
1	1465	4076
1	1467	4077
1	1469	4078
1	1472	4078
1	1476	4080
1	1478	4081
1	1477	4082
1	1473	4083
1	1458	4084
1	1435	4085
1	1407	4086
1	1376	4086
1	1363	4088
1	1356	4089
1	1351	4090
1	1349	4091
1	1356	4092
1	1372	4093
1	1395	4094
1	1417	4094
1	1450	4096
1	1477	4097
1	1499	4098
1	1515	4099
1	1520	4100
1	1516	4101
1	1503	4102
1	1490	4103
1	1476	4104
1	1455	4105
1	1436	4106
1	1417	4107
1	1405	4108
1	1394	4109
1	1379	4110
1	1373	4111
1	1370	4112
1	1373	4113
1	1391	4114
1	1410	4115
1	1437	4116
1	1463	4117
1	1489	4118
1	1510	4119
1	1526	4120
1	1529	4121
1	1530	4122
1	1526	4123
1	1512	4124
1	1497	4125
1	1485	4126
1	1472	4127
1	1458	4128
1	1443	4129
1	1439	4130
1	1431	4131
1	1437	4132
1	1449	4133
1	1458	4134
1	1472	4135
1	1478	4136
1	1485	4137
1	1481	4138
1	1479	4139
1	1476	4140
1	1464	4141
1	1450	4142
1	1449	4143
1	1450	4144
1	1448	4145
1	1450	4146
1	1450	4147
1	1451	4148
1	1454	4149
1	1461	4150
1	1463	4151
1	1472	4152
1	1477	4153
1	1484	4154
1	1490	4155
1	1502	4156
1	1500	4157
1	1495	4158
1	1490	4159
1	1477	4160
1	1461	4161
1	1443	4162
1	1426	4163
1	1410	4164
1	1394	4165
1	1372	4166
1	1359	4167
1	1354	4168
1	1356	4169
1	1368	4170
1	1394	4171
1	1414	4172
1	1436	4173
1	1454	4174
1	1476	4175
1	1503	4176
1	1535	4177
1	1559	4178
1	1575	4179
1	1578	4180
1	1567	4181
1	1556	4182
1	1554	4183
1	1546	4184
1	1533	4185
1	1521	4186
1	1505	4187
1	1490	4188
1	1472	4189
1	1472	4190
1	1473	4191
1	1481	4192
1	1499	4193
1	1521	4194
1	1542	4195
1	1557	4196
1	1572	4197
1	1574	4198
1	1574	4199
1	1568	4200
1	1560	4201
1	1540	4202
1	1508	4203
1	1476	4204
1	1442	4205
1	1418	4206
1	1399	4207
1	1395	4208
1	1391	4209
1	1397	4210
1	1405	4211
1	1425	4212
1	1452	4213
1	1489	4214
1	1530	4215
1	1580	4216
1	1611	4217
1	1636	4218
1	1651	4219
1	1651	4220
1	1636	4221
1	1613	4222
1	1585	4223
1	1555	4224
1	1528	4225
1	1492	4226
1	1467	4227
1	1446	4228
1	1429	4229
1	1424	4230
1	1431	4231
1	1430	4232
1	1441	4233
1	1450	4234
1	1463	4235
1	1465	4236
1	1474	4237
1	1476	4238
1	1477	4239
1	1476	4240
1	1472	4241
1	1463	4242
1	1454	4243
1	1445	4244
1	1436	4245
1	1432	4246
1	1436	4247
1	1448	4248
1	1458	4249
1	1469	4250
1	1482	4251
1	1495	4252
1	1514	4253
1	1533	4254
1	1549	4255
1	1553	4256
1	1554	4257
1	1551	4258
1	1543	4259
1	1530	4260
1	1514	4261
1	1498	4262
1	1482	4263
1	1471	4264
1	1459	4265
1	1455	4266
1	1451	4267
1	1455	4268
1	1466	4269
1	1476	4270
1	1481	4271
1	1490	4272
1	1499	4273
1	1505	4274
1	1518	4275
1	1532	4276
1	1541	4277
1	1550	4278
1	1553	4279
1	1521	4300
1	1526	4301
1	1533	4302
1	1534	4303
1	1537	4304
1	1537	4305
1	1538	4306
1	1529	4307
1	1514	4308
1	1501	4309
1	1489	4310
1	1485	4311
1	1487	4312
1	1490	4313
1	1502	4314
1	1511	4315
1	1516	4316
1	1519	4317
1	1527	4318
1	1529	4319
1	1555	4280
1	1553	4281
1	1543	4282
1	1529	4283
1	1515	4284
1	1500	4285
1	1476	4286
1	1458	4287
1	1445	4288
1	1436	4289
1	1427	4290
1	1427	4291
1	1424	4292
1	1424	4293
1	1432	4294
1	1440	4295
1	1453	4296
1	1474	4297
1	1492	4298
1	1508	4299
1	1521	4320
1	1517	4321
1	1503	4322
1	1491	4323
1	1477	4324
1	1465	4325
1	1450	4326
1	1445	4327
1	1446	4328
1	1449	4329
1	1456	4330
1	1463	4331
1	1474	4332
1	1487	4333
1	1508	4334
1	1533	4335
1	1559	4336
1	1584	4337
1	1604	4338
1	1620	4339
1	1625	4340
1	1629	4341
1	1623	4342
1	1608	4343
1	1593	4344
1	1570	4345
1	1538	4346
1	1512	4347
1	1492	4348
1	1482	4349
1	1477	4350
1	1487	4351
1	1494	4352
1	1507	4353
1	1530	4354
1	1557	4355
1	1586	4356
1	1611	4357
1	1634	4358
1	1647	4359
1	1648	4360
1	1641	4361
1	1629	4362
1	1608	4363
1	1581	4364
1	1542	4365
1	1506	4366
1	1472	4367
1	1450	4368
1	1438	4369
1	1437	4370
1	1438	4371
1	1443	4372
1	1454	4373
1	1468	4374
1	1479	4375
1	1484	4376
1	1491	4377
1	1495	4378
1	1498	4379
1	1497	4380
1	1500	4381
1	1494	4382
1	1492	4383
1	1489	4384
1	1481	4385
1	1472	4386
1	1459	4387
1	1454	4388
1	1450	4389
1	1456	4390
1	1474	4391
1	1490	4392
1	1505	4393
1	1529	4394
1	1549	4395
1	1579	4396
1	1598	4397
1	1612	4398
1	1626	4399
1	1632	4400
1	1629	4401
1	1618	4402
1	1603	4403
1	1580	4404
1	1546	4405
1	1503	4406
1	1463	4407
1	1427	4408
1	1400	4409
1	1395	4410
1	1398	4411
1	1407	4412
1	1423	4413
1	1441	4414
1	1466	4415
1	1489	4416
1	1512	4417
1	1533	4418
1	1554	4419
1	1566	4420
1	1567	4421
1	1566	4422
1	1560	4423
1	1554	4424
1	1543	4425
1	1538	4426
1	1526	4427
1	1520	4428
1	1519	4429
1	1521	4430
1	1524	4431
1	1538	4432
1	1557	4433
1	1572	4434
1	1582	4435
1	1587	4436
1	1587	4437
1	1582	4438
1	1580	4439
1	1571	4440
1	1562	4441
1	1555	4442
1	1549	4443
1	1546	4444
1	1537	4445
1	1526	4446
1	1511	4447
1	1498	4448
1	1488	4449
1	1475	4450
1	1459	4451
1	1449	4452
1	1443	4453
1	1448	4454
1	1452	4455
1	1464	4456
1	1474	4457
1	1482	4458
1	1490	4459
1	1495	4460
1	1495	4461
1	1492	4462
1	1485	4463
1	1485	4464
1	1485	4465
1	1477	4466
1	1474	4467
1	1471	4468
1	1468	4469
1	1467	4470
1	1477	4471
1	1491	4472
1	1514	4473
1	1537	4474
1	1561	4475
1	1589	4476
1	1613	4477
1	1634	4478
1	1651	4479
1	1657	4480
1	1647	4481
1	1636	4482
1	1623	4483
1	1598	4484
1	1569	4485
1	1544	4486
1	1515	4487
1	1495	4488
1	1485	4489
1	1482	4490
1	1490	4491
1	1505	4492
1	1533	4493
1	1567	4494
1	1602	4495
1	1629	4496
1	1656	4497
1	1672	4498
1	1676	4499
1	1670	4500
1	1660	4501
1	1641	4502
1	1620	4503
1	1594	4504
1	1568	4505
1	1541	4506
1	1518	4507
1	1503	4508
1	1494	4509
1	1485	4510
1	1476	4511
1	1476	4512
1	1484	4513
1	1492	4514
1	1495	4515
1	1505	4516
1	1512	4517
1	1516	4518
1	1523	4519
1	1610	4540
1	1616	4541
1	1616	4542
1	1607	4543
1	1606	4544
1	1593	4545
1	1581	4546
1	1574	4547
1	1575	4548
1	1581	4549
1	1587	4550
1	1594	4551
1	1602	4552
1	1613	4553
1	1629	4554
1	1638	4555
1	1639	4556
1	1641	4557
1	1636	4558
1	1631	4559
1	1529	4520
1	1539	4521
1	1540	4522
1	1542	4523
1	1538	4524
1	1526	4525
1	1503	4526
1	1489	4527
1	1471	4528
1	1455	4529
1	1450	4530
1	1458	4531
1	1463	4532
1	1474	4533
1	1502	4534
1	1520	4535
1	1547	4536
1	1565	4537
1	1584	4538
1	1601	4539
1	1623	4560
1	1620	4561
1	1618	4562
1	1611	4563
1	1607	4564
1	1602	4565
1	1597	4566
1	1598	4567
1	1606	4568
1	1615	4569
1	1627	4570
1	1634	4571
1	1644	4572
1	1658	4573
1	1670	4574
1	1680	4575
1	1691	4576
1	1688	4577
1	1686	4578
1	1677	4579
1	1660	4580
1	1638	4581
1	1608	4582
1	1580	4583
1	1553	4584
1	1530	4585
1	1505	4586
1	1485	4587
1	1474	4588
1	1458	4589
1	1450	4590
1	1454	4591
1	1463	4592
1	1476	4593
1	1493	4594
1	1517	4595
1	1543	4596
1	1569	4597
1	1598	4598
1	1626	4599
1	1647	4600
1	1652	4601
1	1647	4602
1	1626	4603
1	1596	4604
1	1562	4605
1	1536	4606
1	1508	4607
1	1486	4608
1	1472	4609
1	1461	4610
1	1463	4611
1	1474	4612
1	1487	4613
1	1508	4614
1	1535	4615
1	1567	4616
1	1595	4617
1	1616	4618
1	1625	4619
1	1624	4620
1	1618	4621
1	1595	4622
1	1563	4623
1	1531	4624
1	1499	4625
1	1469	4626
1	1449	4627
1	1437	4628
1	1437	4629
1	1450	4630
1	1466	4631
1	1495	4632
1	1529	4633
1	1554	4634
1	1577	4635
1	1593	4636
1	1602	4637
1	1605	4638
1	1602	4639
1	1595	4640
1	1586	4641
1	1581	4642
1	1562	4643
1	1554	4644
1	1551	4645
1	1544	4646
1	1544	4647
1	1545	4648
1	1544	4649
1	1550	4650
1	1557	4651
1	1558	4652
1	1559	4653
1	1561	4654
1	1572	4655
1	1582	4656
1	1597	4657
1	1605	4658
1	1607	4659
1	1606	4660
1	1596	4661
1	1595	4662
1	1589	4663
1	1580	4664
1	1571	4665
1	1572	4666
1	1572	4667
1	1571	4668
1	1567	4669
1	1569	4670
1	1570	4671
1	1574	4672
1	1579	4673
1	1583	4674
1	1593	4675
1	1595	4676
1	1594	4677
1	1585	4678
1	1577	4679
1	1923	4700
1	1945	4701
1	1953	4702
1	1959	4703
1	1958	4704
1	1949	4705
1	1926	4706
1	1905	4707
1	1886	4708
1	1869	4709
1	1856	4710
1	1855	4711
1	1845	4712
1	1843	4713
1	1838	4714
1	1836	4715
1	1838	4716
1	1834	4717
1	1825	4718
1	1809	4719
1	1566	4680
1	1555	4681
1	1538	4682
1	1521	4683
1	1507	4684
1	1503	4685
1	1503	4686
1	1513	4687
1	1529	4688
1	1543	4689
1	1557	4690
1	1581	4691
1	1608	4692
1	1641	4693
1	1679	4694
1	1724	4695
1	1776	4696
1	1819	4697
1	1858	4698
1	1895	4699
1	1536	4740
1	1535	4741
1	1529	4742
1	1518	4743
1	1507	4744
1	1499	4745
1	1490	4746
1	1492	4747
1	1501	4748
1	1510	4749
1	1526	4750
1	1540	4751
1	1555	4752
1	1578	4753
1	1594	4754
1	1608	4755
1	1629	4756
1	1646	4757
1	1657	4758
1	1660	4759
1	1785	4720
1	1752	4721
1	1719	4722
1	1682	4723
1	1639	4724
1	1598	4725
1	1570	4726
1	1541	4727
1	1521	4728
1	1508	4729
1	1505	4730
1	1504	4731
1	1514	4732
1	1528	4733
1	1539	4734
1	1547	4735
1	1549	4736
1	1547	4737
1	1541	4738
1	1537	4739
1	1647	4760
1	1629	4761
1	1607	4762
1	1583	4763
1	1562	4764
1	1544	4765
1	1524	4766
1	1505	4767
1	1499	4768
1	1497	4769
1	1503	4770
1	1530	4771
1	1555	4772
1	1583	4773
1	1606	4774
1	1621	4775
1	1634	4776
1	1638	4777
1	1639	4778
1	1634	4779
1	1625	4780
1	1607	4781
1	1587	4782
1	1571	4783
1	1553	4784
1	1533	4785
1	1523	4786
1	1512	4787
1	1503	4788
1	1503	4789
1	1510	4790
1	1520	4791
1	1537	4792
1	1557	4793
1	1582	4794
1	1611	4795
1	1634	4796
1	1659	4797
1	1673	4798
1	1683	4799
1	1674	4800
1	1655	4801
1	1625	4802
1	1593	4803
1	1566	4804
1	1540	4805
1	1525	4806
1	1518	4807
1	1526	4808
1	1541	4809
1	1561	4810
1	1580	4811
1	1598	4812
1	1623	4813
1	1648	4814
1	1674	4815
1	1699	4816
1	1711	4817
1	1713	4818
1	1710	4819
1	1697	4820
1	1679	4821
1	1660	4822
1	1644	4823
1	1632	4824
1	1611	4825
1	1589	4826
1	1572	4827
1	1556	4828
1	1540	4829
1	1530	4830
1	1530	4831
1	1528	4832
1	1538	4833
1	1547	4834
1	1563	4835
1	1594	4836
1	1610	4837
1	1633	4838
1	1647	4839
1	1660	4840
1	1663	4841
1	1661	4842
1	1652	4843
1	1639	4844
1	1625	4845
1	1607	4846
1	1589	4847
1	1575	4848
1	1562	4849
1	1555	4850
1	1547	4851
1	1549	4852
1	1557	4853
1	1580	4854
1	1602	4855
1	1618	4856
1	1635	4857
1	1652	4858
1	1662	4859
1	1670	4860
1	1672	4861
1	1670	4862
1	1662	4863
1	1656	4864
1	1646	4865
1	1634	4866
1	1622	4867
1	1611	4868
1	1607	4869
1	1607	4870
1	1602	4871
1	1607	4872
1	1620	4873
1	1643	4874
1	1664	4875
1	1687	4876
1	1700	4877
1	1706	4878
1	1711	4879
1	1787	4900
1	1778	4901
1	1769	4902
1	1756	4903
1	1739	4904
1	1723	4905
1	1711	4906
1	1690	4907
1	1672	4908
1	1661	4909
1	1657	4910
1	1650	4911
1	1652	4912
1	1655	4913
1	1664	4914
1	1684	4915
1	1700	4916
1	1724	4917
1	1751	4918
1	1772	4919
1	1710	4880
1	1704	4881
1	1690	4882
1	1673	4883
1	1648	4884
1	1628	4885
1	1607	4886
1	1593	4887
1	1589	4888
1	1592	4889
1	1602	4890
1	1621	4891
1	1638	4892
1	1658	4893
1	1680	4894
1	1701	4895
1	1725	4896
1	1746	4897
1	1764	4898
1	1778	4899
1	1791	4920
1	1812	4921
1	1815	4922
1	1811	4923
1	1793	4924
1	1775	4925
1	1760	4926
1	1744	4927
1	1733	4928
1	1718	4929
1	1713	4930
1	1705	4931
1	1705	4932
1	1712	4933
1	1726	4934
1	1746	4935
1	1764	4936
1	1780	4937
1	1796	4938
1	1823	4939
1	1834	4940
1	1841	4941
1	1842	4942
1	1838	4943
1	1823	4944
1	1791	4945
1	1760	4946
1	1738	4947
1	1721	4948
1	1711	4949
1	1704	4950
1	1713	4951
1	1725	4952
1	1743	4953
1	1764	4954
1	1791	4955
1	1818	4956
1	1841	4957
1	1854	4958
1	1865	4959
1	1871	4960
1	1865	4961
1	1855	4962
1	1839	4963
1	1816	4964
1	1778	4965
1	1752	4966
1	1724	4967
1	1691	4968
1	1671	4969
1	1656	4970
1	1656	4971
1	1662	4972
1	1681	4973
1	1700	4974
1	1723	4975
1	1738	4976
1	1752	4977
1	1762	4978
1	1764	4979
1	1657	5000
1	1657	5001
1	1648	5002
1	1638	5003
1	1617	5004
1	1593	5005
1	1559	5006
1	1535	5007
1	1515	5008
1	1503	5009
1	1499	5010
1	1503	5011
1	1508	5012
1	1516	5013
1	1520	5014
1	1526	5015
1	1525	5016
1	1521	5017
1	1523	5018
1	1523	5019
1	1762	4980
1	1755	4981
1	1741	4982
1	1723	4983
1	1699	4984
1	1676	4985
1	1658	4986
1	1637	4987
1	1618	4988
1	1607	4989
1	1602	4990
1	1598	4991
1	1593	4992
1	1590	4993
1	1590	4994
1	1602	4995
1	1625	4996
1	1638	4997
1	1647	4998
1	1653	4999
1	1519	5020
1	1508	5021
1	1503	5022
1	1490	5023
1	1474	5024
1	1458	5025
1	1451	5026
1	1450	5027
1	1451	5028
1	1458	5029
1	1472	5030
1	1480	5031
1	1502	5032
1	1523	5033
1	1539	5034
1	1555	5035
1	1571	5036
1	1581	5037
1	1582	5038
1	1580	5039
1	1565	5040
1	1542	5041
1	1517	5042
1	1491	5043
1	1469	5044
1	1449	5045
1	1428	5046
1	1414	5047
1	1409	5048
1	1416	5049
1	1427	5050
1	1449	5051
1	1469	5052
1	1499	5053
1	1526	5054
1	1544	5055
1	1565	5056
1	1573	5057
1	1576	5058
1	1581	5059
1	1583	5060
1	1581	5061
1	1574	5062
1	1560	5063
1	1537	5064
1	1508	5065
1	1481	5066
1	1463	5067
1	1459	5068
1	1463	5069
1	1473	5070
1	1491	5071
1	1503	5072
1	1521	5073
1	1538	5074
1	1555	5075
1	1580	5076
1	1597	5077
1	1611	5078
1	1621	5079
1	1620	5080
1	1607	5081
1	1592	5082
1	1569	5083
1	1542	5084
1	1508	5085
1	1482	5086
1	1466	5087
1	1449	5088
1	1450	5089
1	1458	5090
1	1476	5091
1	1494	5092
1	1521	5093
1	1548	5094
1	1571	5095
1	1581	5096
1	1590	5097
1	1584	5098
1	1574	5099
1	1554	5100
1	1537	5101
1	1508	5102
1	1474	5103
1	1439	5104
1	1413	5105
1	1398	5106
1	1395	5107
1	1398	5108
1	1412	5109
1	1423	5110
1	1435	5111
1	1458	5112
1	1487	5113
1	1511	5114
1	1532	5115
1	1561	5116
1	1584	5117
1	1602	5118
1	1618	5119
1	1631	5120
1	1629	5121
1	1619	5122
1	1598	5123
1	1571	5124
1	1539	5125
1	1503	5126
1	1482	5127
1	1472	5128
1	1463	5129
1	1461	5130
1	1473	5131
1	1481	5132
1	1503	5133
1	1529	5134
1	1552	5135
1	1567	5136
1	1582	5137
1	1593	5138
1	1595	5139
1	1593	5140
1	1579	5141
1	1557	5142
1	1535	5143
1	1513	5144
1	1500	5145
1	1494	5146
1	1495	5147
1	1503	5148
1	1522	5149
1	1540	5150
1	1561	5151
1	1589	5152
1	1615	5153
1	1639	5154
1	1660	5155
1	1662	5156
1	1664	5157
1	1660	5158
1	1654	5159
1	1639	5160
1	1626	5161
1	1612	5162
1	1592	5163
1	1566	5164
1	1541	5165
1	1517	5166
1	1493	5167
1	1465	5168
1	1443	5169
1	1427	5170
1	1417	5171
1	1424	5172
1	1436	5173
1	1456	5174
1	1488	5175
1	1529	5176
1	1555	5177
1	1574	5178
1	1589	5179
1	1600	5180
1	1611	5181
1	1616	5182
1	1612	5183
1	1607	5184
1	1593	5185
1	1579	5186
1	1571	5187
1	1566	5188
1	1563	5189
1	1563	5190
1	1568	5191
1	1571	5192
1	1570	5193
1	1571	5194
1	1571	5195
1	1572	5196
1	1571	5197
1	1566	5198
1	1559	5199
1	1546	5200
1	1529	5201
1	1526	5202
1	1520	5203
1	1514	5204
1	1505	5205
1	1503	5206
1	1498	5207
1	1494	5208
1	1495	5209
1	1497	5210
1	1503	5211
1	1508	5212
1	1524	5213
1	1537	5214
1	1551	5215
1	1554	5216
1	1555	5217
1	1559	5218
1	1564	5219
1	1560	5240
1	1564	5241
1	1562	5242
1	1557	5243
1	1555	5244
1	1549	5245
1	1534	5246
1	1523	5247
1	1512	5248
1	1503	5249
1	1503	5250
1	1521	5251
1	1539	5252
1	1557	5253
1	1582	5254
1	1606	5255
1	1626	5256
1	1645	5257
1	1657	5258
1	1656	5259
1	1570	5220
1	1581	5221
1	1583	5222
1	1586	5223
1	1584	5224
1	1577	5225
1	1562	5226
1	1552	5227
1	1544	5228
1	1541	5229
1	1530	5230
1	1526	5231
1	1520	5232
1	1517	5233
1	1520	5234
1	1528	5235
1	1535	5236
1	1546	5237
1	1555	5238
1	1555	5239
1	1647	5260
1	1620	5261
1	1587	5262
1	1553	5263
1	1515	5264
1	1479	5265
1	1450	5266
1	1420	5267
1	1399	5268
1	1393	5269
1	1398	5270
1	1413	5271
1	1437	5272
1	1466	5273
1	1500	5274
1	1533	5275
1	1557	5276
1	1581	5277
1	1602	5278
1	1617	5279
1	1631	5280
1	1638	5281
1	1634	5282
1	1625	5283
1	1611	5284
1	1598	5285
1	1584	5286
1	1580	5287
1	1569	5288
1	1558	5289
1	1553	5290
1	1544	5291
1	1542	5292
1	1546	5293
1	1555	5294
1	1569	5295
1	1589	5296
1	1603	5297
1	1615	5298
1	1625	5299
1	1625	5300
1	1621	5301
1	1612	5302
1	1602	5303
1	1591	5304
1	1580	5305
1	1564	5306
1	1557	5307
1	1552	5308
1	1543	5309
1	1543	5310
1	1555	5311
1	1566	5312
1	1575	5313
1	1584	5314
1	1597	5315
1	1612	5316
1	1626	5317
1	1634	5318
1	1639	5319
1	1641	5320
1	1630	5321
1	1613	5322
1	1594	5323
1	1567	5324
1	1540	5325
1	1521	5326
1	1503	5327
1	1501	5328
1	1505	5329
1	1516	5330
1	1521	5331
1	1529	5332
1	1542	5333
1	1557	5334
1	1579	5335
1	1596	5336
1	1605	5337
1	1604	5338
1	1598	5339
1	1590	5340
1	1581	5341
1	1575	5342
1	1573	5343
1	1573	5344
1	1568	5345
1	1559	5346
1	1554	5347
1	1553	5348
1	1553	5349
1	1557	5350
1	1563	5351
1	1572	5352
1	1581	5353
1	1594	5354
1	1608	5355
1	1633	5356
1	1643	5357
1	1647	5358
1	1645	5359
1	1644	5360
1	1634	5361
1	1620	5362
1	1596	5363
1	1566	5364
1	1533	5365
1	1500	5366
1	1475	5367
1	1456	5368
1	1446	5369
1	1441	5370
1	1450	5371
1	1464	5372
1	1493	5373
1	1533	5374
1	1580	5375
1	1624	5376
1	1660	5377
1	1695	5378
1	1723	5379
1	1739	5400
1	1744	5401
1	1743	5402
1	1733	5403
1	1710	5404
1	1686	5405
1	1656	5406
1	1621	5407
1	1594	5408
1	1571	5409
1	1551	5410
1	1541	5411
1	1542	5412
1	1553	5413
1	1561	5414
1	1579	5415
1	1589	5416
1	1599	5417
1	1608	5418
1	1616	5419
1	1619	5400
1	1625	5401
1	1627	5402
1	1625	5403
1	1623	5404
1	1621	5405
1	1620	5406
1	1613	5407
1	1607	5408
1	1600	5409
1	1599	5410
1	1594	5411
1	1600	5412
1	1606	5413
1	1610	5414
1	1623	5415
1	1634	5416
1	1641	5417
1	1647	5418
1	1651	5419
1	1701	5440
1	1695	5441
1	1680	5442
1	1660	5443
1	1638	5444
1	1615	5445
1	1593	5446
1	1573	5447
1	1559	5448
1	1560	5449
1	1563	5450
1	1579	5451
1	1603	5452
1	1628	5453
1	1652	5454
1	1668	5455
1	1670	5456
1	1672	5457
1	1669	5458
1	1664	5459
1	1655	5460
1	1645	5461
1	1631	5462
1	1615	5463
1	1607	5464
1	1594	5465
1	1584	5466
1	1579	5467
1	1581	5468
1	1591	5469
1	1608	5470
1	1631	5471
1	1651	5472
1	1675	5473
1	1699	5474
1	1726	5475
1	1751	5476
1	1760	5477
1	1763	5478
1	1763	5479
1	1654	5420
1	1652	5421
1	1656	5422
1	1656	5423
1	1656	5424
1	1652	5425
1	1638	5426
1	1632	5427
1	1623	5428
1	1611	5429
1	1608	5430
1	1625	5431
1	1633	5432
1	1652	5433
1	1668	5434
1	1686	5435
1	1690	5436
1	1698	5437
1	1700	5438
1	1703	5439
1	1764	5480
1	1760	5481
1	1756	5482
1	1751	5483
1	1746	5484
1	1738	5485
1	1724	5486
1	1716	5487
1	1723	5488
1	1733	5489
1	1746	5490
1	1768	5491
1	1782	5492
1	1788	5493
1	1790	5494
1	1783	5495
1	1782	5496
1	1778	5497
1	1765	5498
1	1750	5499
1	1724	5500
1	1690	5501
1	1662	5502
1	1636	5503
1	1608	5504
1	1582	5505
1	1567	5506
1	1552	5507
1	1543	5508
1	1541	5509
1	1543	5510
1	1549	5511
1	1555	5512
1	1566	5513
1	1581	5514
1	1604	5515
1	1616	5516
1	1625	5517
1	1632	5518
1	1634	5519
1	1639	5520
1	1647	5521
1	1642	5522
1	1628	5523
1	1610	5524
1	1590	5525
1	1567	5526
1	1552	5527
1	1543	5528
1	1549	5529
1	1558	5530
1	1564	5531
1	1567	5532
1	1567	5533
1	1566	5534
1	1571	5535
1	1580	5536
1	1589	5537
1	1598	5538
1	1607	5539
1	1634	5540
1	1652	5541
1	1669	5542
1	1679	5543
1	1680	5544
1	1674	5545
1	1659	5546
1	1647	5547
1	1644	5548
1	1647	5549
1	1654	5550
1	1671	5551
1	1686	5552
1	1706	5553
1	1721	5554
1	1738	5555
1	1751	5556
1	1760	5557
1	1757	5558
1	1744	5559
1	1718	5560
1	1678	5561
1	1643	5562
1	1605	5563
1	1568	5564
1	1531	5565
1	1508	5566
1	1490	5567
1	1481	5568
1	1476	5569
1	1477	5570
1	1490	5571
1	1510	5572
1	1538	5573
1	1569	5574
1	1607	5575
1	1635	5576
1	1668	5577
1	1695	5578
1	1716	5579
1	1734	5580
1	1747	5581
1	1753	5582
1	1755	5583
1	1750	5584
1	1735	5585
1	1712	5586
1	1687	5587
1	1660	5588
1	1643	5589
1	1639	5590
1	1645	5591
1	1647	5592
1	1656	5593
1	1661	5594
1	1674	5595
1	1694	5596
1	1705	5597
1	1714	5598
1	1723	5599
1	1723	5600
1	1716	5601
1	1705	5602
1	1696	5603
1	1686	5604
1	1665	5605
1	1646	5606
1	1633	5607
1	1621	5608
1	1623	5609
1	1634	5610
1	1659	5611
1	1690	5612
1	1738	5613
1	1793	5614
1	1854	5615
1	1900	5616
1	1944	5617
1	1988	5618
1	2041	5619
1	2093	5620
1	2135	5621
1	2173	5622
1	2193	5623
1	2184	5624
1	2156	5625
1	2119	5626
1	2078	5627
1	2037	5628
1	1999	5629
1	1968	5630
1	1933	5631
1	1909	5632
1	1895	5633
1	1886	5634
1	1875	5635
1	1870	5636
1	1863	5637
1	1852	5638
1	1837	5639
1	1813	5640
1	1778	5641
1	1746	5642
1	1714	5643
1	1687	5644
1	1670	5645
1	1655	5646
1	1646	5647
1	1647	5648
1	1656	5649
1	1675	5650
1	1699	5651
1	1723	5652
1	1749	5653
1	1772	5654
1	1790	5655
1	1803	5656
1	1806	5657
1	1799	5658
1	1788	5659
1	1678	5680
1	1673	5681
1	1670	5682
1	1668	5683
1	1661	5684
1	1657	5685
1	1651	5686
1	1639	5687
1	1634	5688
1	1632	5689
1	1629	5690
1	1637	5691
1	1660	5692
1	1686	5693
1	1716	5694
1	1742	5695
1	1760	5696
1	1773	5697
1	1783	5698
1	1790	5699
1	1768	5660
1	1749	5661
1	1727	5662
1	1706	5663
1	1685	5664
1	1664	5665
1	1638	5666
1	1623	5667
1	1618	5668
1	1611	5669
1	1607	5670
1	1607	5671
1	1606	5672
1	1607	5673
1	1616	5674
1	1631	5675
1	1645	5676
1	1658	5677
1	1665	5678
1	1674	5679
1	1791	5700
1	1793	5701
1	1780	5702
1	1757	5703
1	1728	5704
1	1698	5705
1	1669	5706
1	1643	5707
1	1626	5708
1	1616	5709
1	1620	5710
1	1626	5711
1	1639	5712
1	1657	5713
1	1674	5714
1	1698	5715
1	1724	5716
1	1737	5717
1	1731	5718
1	1719	5719
1	1705	5720
1	1686	5721
1	1660	5722
1	1642	5723
1	1629	5724
1	1618	5725
1	1599	5726
1	1584	5727
1	1584	5728
1	1598	5729
1	1616	5730
1	1649	5731
1	1679	5732
1	1703	5733
1	1734	5734
1	1764	5735
1	1776	5736
1	1790	5737
1	1793	5738
1	1791	5739
1	1780	5740
1	1767	5741
1	1757	5742
1	1747	5743
1	1742	5744
1	1741	5745
1	1737	5746
1	1734	5747
1	1726	5748
1	1724	5749
1	1728	5750
1	1731	5751
1	1737	5752
1	1742	5753
1	1752	5754
1	1764	5755
1	1764	5756
1	1764	5757
1	1760	5758
1	1751	5759
1	1739	5760
1	1726	5761
1	1701	5762
1	1680	5763
1	1660	5764
1	1644	5765
1	1631	5766
1	1613	5767
1	1607	5768
1	1600	5769
1	1603	5770
1	1607	5771
1	1625	5772
1	1646	5773
1	1670	5774
1	1701	5775
1	1740	5776
1	1765	5777
1	1791	5778
1	1817	5779
1	1826	5780
1	1823	5781
1	1813	5782
1	1796	5783
1	1778	5784
1	1757	5785
1	1734	5786
1	1714	5787
1	1701	5788
1	1698	5789
1	1701	5790
1	1712	5791
1	1722	5792
1	1738	5793
1	1750	5794
1	1767	5795
1	1793	5796
1	1823	5797
1	1843	5798
1	1856	5799
1	1860	5800
1	1850	5801
1	1841	5802
1	1821	5803
1	1798	5804
1	1772	5805
1	1753	5806
1	1737	5807
1	1731	5808
1	1737	5809
1	1747	5810
1	1765	5811
1	1791	5812
1	1818	5813
1	1839	5814
1	1854	5815
1	1857	5816
1	1860	5817
1	1857	5818
1	1850	5819
1	1918	5840
1	1897	5841
1	1872	5842
1	1848	5843
1	1823	5844
1	1795	5845
1	1769	5846
1	1756	5847
1	1751	5848
1	1753	5849
1	1764	5850
1	1783	5851
1	1803	5852
1	1830	5853
1	1854	5854
1	1871	5855
1	1884	5856
1	1890	5857
1	1887	5858
1	1875	5859
1	1843	5820
1	1836	5821
1	1823	5822
1	1813	5823
1	1793	5824
1	1780	5825
1	1767	5826
1	1759	5827
1	1751	5828
1	1753	5829
1	1764	5830
1	1772	5831
1	1791	5832
1	1818	5833
1	1840	5834
1	1863	5835
1	1888	5836
1	1908	5837
1	1922	5838
1	1922	5839
1	1859	5860
1	1831	5861
1	1796	5862
1	1761	5863
1	1724	5864
1	1698	5865
1	1690	5866
1	1685	5867
1	1700	5868
1	1733	5869
1	1768	5870
1	1811	5871
1	1843	5872
1	1868	5873
1	1894	5874
1	1921	5875
1	1933	5876
1	1944	5877
1	1948	5878
1	1945	5879
1	1817	5900
1	1796	5901
1	1770	5902
1	1744	5903
1	1712	5904
1	1680	5905
1	1639	5906
1	1615	5907
1	1593	5908
1	1575	5909
1	1566	5910
1	1574	5911
1	1581	5912
1	1593	5913
1	1605	5914
1	1608	5915
1	1616	5916
1	1625	5917
1	1625	5918
1	1629	5919
1	1939	5880
1	1939	5881
1	1926	5882
1	1916	5883
1	1899	5884
1	1884	5885
1	1861	5886
1	1843	5887
1	1817	5888
1	1793	5889
1	1785	5890
1	1782	5891
1	1785	5892
1	1791	5893
1	1801	5894
1	1818	5895
1	1838	5896
1	1842	5897
1	1841	5898
1	1831	5899
1	1654	5940
1	1648	5941
1	1646	5942
1	1636	5943
1	1625	5944
1	1610	5945
1	1592	5946
1	1580	5947
1	1570	5948
1	1561	5949
1	1560	5950
1	1562	5951
1	1572	5952
1	1581	5953
1	1587	5954
1	1593	5955
1	1598	5956
1	1589	5957
1	1574	5958
1	1559	5959
1	1641	5920
1	1649	5921
1	1658	5922
1	1660	5923
1	1656	5924
1	1638	5925
1	1625	5926
1	1607	5927
1	1593	5928
1	1581	5929
1	1577	5930
1	1567	5931
1	1568	5932
1	1576	5933
1	1584	5934
1	1598	5935
1	1616	5936
1	1634	5937
1	1647	5938
1	1652	5939
1	1550	5960
1	1540	5961
1	1529	5962
1	1524	5963
1	1518	5964
1	1515	5965
1	1503	5966
1	1502	5967
1	1500	5968
1	1503	5969
1	1505	5970
1	1508	5971
1	1505	5972
1	1508	5973
1	1517	5974
1	1533	5975
1	1554	5976
1	1572	5977
1	1590	5978
1	1607	5979
1	1618	5980
1	1620	5981
1	1620	5982
1	1613	5983
1	1602	5984
1	1580	5985
1	1562	5986
1	1544	5987
1	1531	5988
1	1520	5989
1	1526	5990
1	1525	5991
1	1521	5992
1	1521	5993
1	1526	5994
1	1533	5995
1	1537	5996
1	1542	5997
1	1543	5998
1	1542	5999
1	1535	6000
1	1541	6001
1	1548	6002
1	1557	6003
1	1568	6004
1	1581	6005
1	1593	6006
1	1607	6007
1	1619	6008
1	1629	6009
1	1634	6010
1	1632	6011
1	1629	6012
1	1626	6013
1	1631	6014
1	1633	6015
1	1638	6016
1	1637	6017
1	1620	6018
1	1593	6019
1	1562	6020
1	1532	6021
1	1503	6022
1	1476	6023
1	1450	6024
1	1436	6025
1	1423	6026
1	1420	6027
1	1435	6028
1	1467	6029
1	1506	6030
1	1554	6031
1	1586	6032
1	1624	6033
1	1655	6034
1	1672	6035
1	1691	6036
1	1700	6037
1	1701	6038
1	1695	6039
1	1677	6040
1	1655	6041
1	1623	6042
1	1590	6043
1	1557	6044
1	1535	6045
1	1523	6046
1	1516	6047
1	1503	6048
1	1502	6049
1	1499	6050
1	1494	6051
1	1497	6052
1	1503	6053
1	1513	6054
1	1529	6055
1	1543	6056
1	1561	6057
1	1582	6058
1	1593	6059
1	1600	6060
1	1602	6061
1	1590	6062
1	1574	6063
1	1556	6064
1	1540	6065
1	1523	6066
1	1508	6067
1	1503	6068
1	1508	6069
1	1523	6070
1	1538	6071
1	1561	6072
1	1584	6073
1	1603	6074
1	1619	6075
1	1638	6076
1	1654	6077
1	1664	6078
1	1677	6079
1	1683	6080
1	1686	6081
1	1688	6082
1	1686	6083
1	1683	6084
1	1672	6085
1	1654	6086
1	1638	6087
1	1624	6088
1	1608	6089
1	1594	6090
1	1585	6091
1	1575	6092
1	1571	6093
1	1571	6094
1	1574	6095
1	1577	6096
1	1578	6097
1	1581	6098
1	1581	6099
1	1582	6100
1	1581	6101
1	1577	6102
1	1567	6103
1	1556	6104
1	1548	6105
1	1542	6106
1	1537	6107
1	1529	6108
1	1526	6109
1	1525	6110
1	1526	6111
1	1534	6112
1	1549	6113
1	1569	6114
1	1592	6115
1	1607	6116
1	1619	6117
1	1621	6118
1	1618	6119
1	1608	6120
1	1606	6121
1	1586	6122
1	1564	6123
1	1539	6124
1	1512	6125
1	1488	6126
1	1464	6127
1	1445	6128
1	1437	6129
1	1443	6130
1	1453	6131
1	1479	6132
1	1514	6133
1	1546	6134
1	1581	6135
1	1611	6136
1	1637	6137
1	1649	6138
1	1656	6139
1	1660	6140
1	1659	6141
1	1650	6142
1	1643	6143
1	1633	6144
1	1618	6145
1	1602	6146
1	1592	6147
1	1582	6148
1	1581	6149
1	1584	6150
1	1607	6151
1	1625	6152
1	1643	6153
1	1656	6154
1	1660	6155
1	1668	6156
1	1670	6157
1	1665	6158
1	1659	6159
1	1639	6160
1	1616	6161
1	1593	6162
1	1567	6163
1	1543	6164
1	1525	6165
1	1516	6166
1	1505	6167
1	1502	6168
1	1492	6169
1	1484	6170
1	1479	6171
1	1476	6172
1	1476	6173
1	1481	6174
1	1490	6175
1	1502	6176
1	1516	6177
1	1532	6178
1	1551	6179
1	1566	6180
1	1589	6181
1	1607	6182
1	1616	6183
1	1625	6184
1	1634	6185
1	1634	6186
1	1631	6187
1	1623	6188
1	1607	6189
1	1598	6190
1	1594	6191
1	1594	6192
1	1597	6193
1	1603	6194
1	1612	6195
1	1634	6196
1	1651	6197
1	1661	6198
1	1670	6199
1	1671	6200
1	1665	6201
1	1656	6202
1	1639	6203
1	1620	6204
1	1598	6205
1	1566	6206
1	1539	6207
1	1521	6208
1	1512	6209
1	1516	6210
1	1528	6211
1	1529	6212
1	1539	6213
1	1555	6214
1	1572	6215
1	1589	6216
1	1598	6217
1	1607	6218
1	1608	6219
1	1608	6220
1	1596	6221
1	1581	6222
1	1566	6223
1	1549	6224
1	1530	6225
1	1521	6226
1	1508	6227
1	1501	6228
1	1485	6229
1	1472	6230
1	1450	6231
1	1439	6232
1	1437	6233
1	1450	6234
1	1477	6235
1	1511	6236
1	1546	6237
1	1580	6238
1	1605	6239
1	1621	6240
1	1634	6241
1	1643	6242
1	1643	6243
1	1634	6244
1	1631	6245
1	1616	6246
1	1600	6247
1	1580	6248
1	1562	6249
1	1551	6250
1	1537	6251
1	1539	6252
1	1547	6253
1	1563	6254
1	1582	6255
1	1608	6256
1	1629	6257
1	1646	6258
1	1659	6259
1	1662	6260
1	1662	6261
1	1659	6262
1	1647	6263
1	1632	6264
1	1607	6265
1	1581	6266
1	1563	6267
1	1551	6268
1	1542	6269
1	1551	6270
1	1575	6271
1	1597	6272
1	1622	6273
1	1647	6274
1	1670	6275
1	1685	6276
1	1700	6277
1	1703	6278
1	1694	6279
1	1664	6300
1	1676	6301
1	1674	6302
1	1660	6303
1	1638	6304
1	1603	6305
1	1559	6306
1	1521	6307
1	1495	6308
1	1481	6309
1	1477	6310
1	1474	6311
1	1476	6312
1	1476	6313
1	1485	6314
1	1498	6315
1	1521	6316
1	1544	6317
1	1574	6318
1	1607	6319
1	1671	6280
1	1634	6281
1	1602	6282
1	1570	6283
1	1546	6284
1	1529	6285
1	1518	6286
1	1503	6287
1	1491	6288
1	1481	6289
1	1490	6290
1	1499	6291
1	1511	6292
1	1526	6293
1	1543	6294
1	1566	6295
1	1584	6296
1	1610	6297
1	1634	6298
1	1651	6299
1	1634	6320
1	1661	6321
1	1683	6322
1	1687	6323
1	1688	6324
1	1685	6325
1	1672	6326
1	1665	6327
1	1665	6328
1	1675	6329
1	1680	6330
1	1686	6331
1	1683	6332
1	1693	6333
1	1698	6334
1	1707	6335
1	1715	6336
1	1724	6337
1	1728	6338
1	1720	6339
1	1705	6340
1	1683	6341
1	1654	6342
1	1626	6343
1	1596	6344
1	1566	6345
1	1535	6346
1	1509	6347
1	1491	6348
1	1478	6349
1	1482	6350
1	1482	6351
1	1488	6352
1	1499	6353
1	1514	6354
1	1536	6355
1	1562	6356
1	1589	6357
1	1613	6358
1	1634	6359
1	1701	6380
1	1681	6381
1	1660	6382
1	1634	6383
1	1607	6384
1	1580	6385
1	1546	6386
1	1525	6387
1	1517	6388
1	1520	6389
1	1533	6390
1	1560	6391
1	1593	6392
1	1621	6393
1	1643	6394
1	1667	6395
1	1688	6396
1	1701	6397
1	1708	6398
1	1703	6399
1	1652	6360
1	1667	6361
1	1665	6362
1	1664	6363
1	1665	6364
1	1664	6365
1	1662	6366
1	1660	6367
1	1657	6368
1	1652	6369
1	1647	6370
1	1643	6371
1	1646	6372
1	1655	6373
1	1669	6374
1	1687	6375
1	1713	6376
1	1725	6377
1	1728	6378
1	1718	6379
1	1695	6400
1	1669	6401
1	1641	6402
1	1607	6403
1	1571	6404
1	1539	6405
1	1519	6406
1	1501	6407
1	1490	6408
1	1490	6409
1	1502	6410
1	1521	6411
1	1548	6412
1	1580	6413
1	1607	6414
1	1634	6415
1	1647	6416
1	1660	6417
1	1663	6418
1	1656	6419
1	1635	6420
1	1625	6421
1	1607	6422
1	1589	6423
1	1573	6424
1	1559	6425
1	1549	6426
1	1544	6427
1	1544	6428
1	1542	6429
1	1542	6430
1	1542	6431
1	1547	6432
1	1557	6433
1	1561	6434
1	1566	6435
1	1569	6436
1	1576	6437
1	1583	6438
1	1575	6439
1	1568	6440
1	1555	6441
1	1544	6442
1	1541	6443
1	1546	6444
1	1557	6445
1	1571	6446
1	1584	6447
1	1605	6448
1	1625	6449
1	1649	6450
1	1678	6451
1	1697	6452
1	1707	6453
1	1708	6454
1	1701	6455
1	1691	6456
1	1680	6457
1	1661	6458
1	1638	6459
1	1610	6460
1	1577	6461
1	1549	6462
1	1529	6463
1	1515	6464
1	1504	6465
1	1508	6466
1	1512	6467
1	1516	6468
1	1520	6469
1	1527	6470
1	1534	6471
1	1544	6472
1	1555	6473
1	1564	6474
1	1577	6475
1	1582	6476
1	1593	6477
1	1595	6478
1	1593	6479
1	1581	6480
1	1571	6481
1	1555	6482
1	1536	6483
1	1529	6484
1	1530	6485
1	1543	6486
1	1563	6487
1	1591	6488
1	1616	6489
1	1644	6490
1	1670	6491
1	1703	6492
1	1738	6493
1	1772	6494
1	1821	6495
1	1871	6496
1	1911	6497
1	1949	6498
1	1980	6499
1	2000	6500
1	2010	6501
1	2011	6502
1	2000	6503
1	1975	6504
1	1948	6505
1	1908	6506
1	1872	6507
1	1843	6508
1	1818	6509
1	1796	6510
1	1796	6511
1	1794	6512
1	1798	6513
1	1801	6514
1	1801	6515
1	1811	6516
1	1809	6517
1	1803	6518
1	1793	6519
1	1783	6520
1	1760	6521
1	1734	6522
1	1700	6523
1	1659	6524
1	1613	6525
1	1580	6526
1	1542	6527
1	1512	6528
1	1478	6529
1	1454	6530
1	1432	6531
1	1419	6532
1	1419	6533
1	1433	6534
1	1468	6535
1	1512	6536
1	1553	6537
1	1592	6538
1	1629	6539
1	1657	6540
1	1677	6541
1	1697	6542
1	1701	6543
1	1697	6544
1	1692	6545
1	1685	6546
1	1675	6547
1	1670	6548
1	1670	6549
1	1680	6550
1	1684	6551
1	1688	6552
1	1692	6553
1	1697	6554
1	1695	6555
1	1696	6556
1	1686	6557
1	1680	6558
1	1674	6559
1	1668	6560
1	1659	6561
1	1641	6562
1	1619	6563
1	1591	6564
1	1561	6565
1	1529	6566
1	1503	6567
1	1487	6568
1	1479	6569
1	1485	6570
1	1503	6571
1	1524	6572
1	1547	6573
1	1569	6574
1	1591	6575
1	1607	6576
1	1623	6577
1	1631	6578
1	1633	6579
1	1623	6580
1	1607	6581
1	1600	6582
1	1594	6583
1	1591	6584
1	1587	6585
1	1592	6586
1	1598	6587
1	1611	6588
1	1629	6589
1	1647	6590
1	1673	6591
1	1698	6592
1	1714	6593
1	1733	6594
1	1742	6595
1	1739	6596
1	1739	6597
1	1734	6598
1	1726	6599
1	1712	6600
1	1704	6601
1	1685	6602
1	1660	6603
1	1634	6604
1	1610	6605
1	1587	6606
1	1567	6607
1	1550	6608
1	1538	6609
1	1530	6610
1	1530	6611
1	1543	6612
1	1557	6613
1	1580	6614
1	1603	6615
1	1634	6616
1	1659	6617
1	1682	6618
1	1698	6619
1	1703	6620
1	1699	6621
1	1688	6622
1	1675	6623
1	1660	6624
1	1643	6625
1	1611	6626
1	1591	6627
1	1571	6628
1	1563	6629
1	1568	6630
1	1587	6631
1	1599	6632
1	1621	6633
1	1644	6634
1	1657	6635
1	1673	6636
1	1685	6637
1	1690	6638
1	1697	6639
1	1700	6640
1	1699	6641
1	1689	6642
1	1677	6643
1	1660	6644
1	1636	6645
1	1610	6646
1	1592	6647
1	1580	6648
1	1580	6649
1	1593	6650
1	1609	6651
1	1634	6652
1	1656	6653
1	1683	6654
1	1708	6655
1	1726	6656
1	1744	6657
1	1753	6658
1	1755	6659
1	1747	6660
1	1738	6661
1	1716	6662
1	1695	6663
1	1673	6664
1	1639	6665
1	1611	6666
1	1597	6667
1	1594	6668
1	1602	6669
1	1621	6670
1	1642	6671
1	1672	6672
1	1701	6673
1	1727	6674
1	1751	6675
1	1769	6676
1	1778	6677
1	1779	6678
1	1773	6679
1	1764	6680
1	1747	6681
1	1730	6682
1	1710	6683
1	1691	6684
1	1679	6685
1	1664	6686
1	1661	6687
1	1665	6688
1	1671	6689
1	1680	6690
1	1698	6691
1	1712	6692
1	1724	6693
1	1742	6694
1	1764	6695
1	1790	6696
1	1811	6697
1	1824	6698
1	1833	6699
1	1837	6700
1	1829	6701
1	1823	6702
1	1813	6703
1	1791	6704
1	1767	6705
1	1750	6706
1	1723	6707
1	1698	6708
1	1675	6709
1	1661	6710
1	1661	6711
1	1672	6712
1	1688	6713
1	1712	6714
1	1738	6715
1	1762	6716
1	1790	6717
1	1814	6718
1	1818	6719
1	1877	6740
1	1860	6741
1	1842	6742
1	1818	6743
1	1798	6744
1	1786	6745
1	1765	6746
1	1757	6747
1	1753	6748
1	1756	6749
1	1767	6750
1	1790	6751
1	1809	6752
1	1821	6753
1	1832	6754
1	1843	6755
1	1844	6756
1	1843	6757
1	1831	6758
1	1817	6759
1	1817	6720
1	1815	6721
1	1808	6722
1	1798	6723
1	1788	6724
1	1773	6725
1	1764	6726
1	1756	6727
1	1754	6728
1	1760	6729
1	1762	6730
1	1769	6731
1	1782	6732
1	1798	6733
1	1821	6734
1	1843	6735
1	1860	6736
1	1873	6737
1	1881	6738
1	1881	6739
1	1798	6760
1	1773	6761
1	1760	6762
1	1746	6763
1	1738	6764
1	1728	6765
1	1724	6766
1	1714	6767
1	1710	6768
1	1711	6769
1	1716	6770
1	1729	6771
1	1746	6772
1	1764	6773
1	1780	6774
1	1788	6775
1	1781	6776
1	1786	6777
1	1788	6778
1	1782	6779
1	1767	6780
1	1750	6781
1	1717	6782
1	1684	6783
1	1647	6784
1	1608	6785
1	1580	6786
1	1556	6787
1	1544	6788
1	1539	6789
1	1540	6790
1	1544	6791
1	1559	6792
1	1582	6793
1	1607	6794
1	1629	6795
1	1654	6796
1	1668	6797
1	1681	6798
1	1683	6799
1	1684	6800
1	1679	6801
1	1668	6802
1	1652	6803
1	1634	6804
1	1620	6805
1	1592	6806
1	1569	6807
1	1548	6808
1	1530	6809
1	1517	6810
1	1517	6811
1	1517	6812
1	1526	6813
1	1533	6814
1	1546	6815
1	1561	6816
1	1577	6817
1	1590	6818
1	1590	6819
1	1584	6820
1	1571	6821
1	1566	6822
1	1561	6823
1	1556	6824
1	1553	6825
1	1553	6826
1	1546	6827
1	1540	6828
1	1536	6829
1	1529	6830
1	1534	6831
1	1547	6832
1	1559	6833
1	1570	6834
1	1576	6835
1	1580	6836
1	1584	6837
1	1585	6838
1	1584	6839
1	1579	6840
1	1567	6841
1	1560	6842
1	1547	6843
1	1539	6844
1	1536	6845
1	1528	6846
1	1517	6847
1	1515	6848
1	1515	6849
1	1517	6850
1	1518	6851
1	1523	6852
1	1528	6853
1	1530	6854
1	1538	6855
1	1555	6856
1	1569	6857
1	1581	6858
1	1585	6859
1	1560	6880
1	1543	6881
1	1526	6882
1	1499	6883
1	1472	6884
1	1445	6885
1	1427	6886
1	1409	6887
1	1398	6888
1	1392	6889
1	1398	6890
1	1415	6891
1	1435	6892
1	1454	6893
1	1481	6894
1	1513	6895
1	1544	6896
1	1575	6897
1	1599	6898
1	1613	6899
1	1586	6860
1	1585	6861
1	1586	6862
1	1585	6863
1	1585	6864
1	1583	6865
1	1572	6866
1	1556	6867
1	1545	6868
1	1540	6869
1	1539	6870
1	1542	6871
1	1542	6872
1	1542	6873
1	1544	6874
1	1544	6875
1	1552	6876
1	1555	6877
1	1561	6878
1	1564	6879
1	1618	6900
1	1620	6901
1	1603	6902
1	1581	6903
1	1562	6904
1	1544	6905
1	1529	6906
1	1520	6907
1	1518	6908
1	1529	6909
1	1539	6910
1	1547	6911
1	1563	6912
1	1583	6913
1	1607	6914
1	1625	6915
1	1647	6916
1	1657	6917
1	1663	6918
1	1668	6919
1	1668	6920
1	1661	6921
1	1649	6922
1	1627	6923
1	1597	6924
1	1566	6925
1	1530	6926
1	1507	6927
1	1488	6928
1	1475	6929
1	1466	6930
1	1465	6931
1	1454	6932
1	1458	6933
1	1463	6934
1	1472	6935
1	1491	6936
1	1521	6937
1	1543	6938
1	1557	6939
1	1566	6940
1	1571	6941
1	1568	6942
1	1561	6943
1	1555	6944
1	1549	6945
1	1543	6946
1	1538	6947
1	1529	6948
1	1523	6949
1	1529	6950
1	1530	6951
1	1533	6952
1	1539	6953
1	1554	6954
1	1572	6955
1	1581	6956
1	1585	6957
1	1587	6958
1	1583	6959
1	1582	6960
1	1582	6961
1	1569	6962
1	1555	6963
1	1544	6964
1	1537	6965
1	1531	6966
1	1530	6967
1	1530	6968
1	1529	6969
1	1529	6970
1	1529	6971
1	1542	6972
1	1557	6973
1	1574	6974
1	1593	6975
1	1609	6976
1	1619	6977
1	1624	6978
1	1629	6979
1	1634	6980
1	1634	6981
1	1625	6982
1	1610	6983
1	1592	6984
1	1573	6985
1	1555	6986
1	1544	6987
1	1541	6988
1	1543	6989
1	1549	6990
1	1559	6991
1	1562	6992
1	1564	6993
1	1564	6994
1	1567	6995
1	1568	6996
1	1570	6997
1	1566	6998
1	1559	6999
1	1544	7000
1	1525	7001
1	1512	7002
1	1503	7003
1	1500	7004
1	1491	7005
1	1494	7006
1	1495	7007
1	1505	7008
1	1526	7009
1	1547	7010
1	1566	7011
1	1581	7012
1	1598	7013
1	1612	7014
1	1625	7015
1	1631	7016
1	1638	7017
1	1646	7018
1	1652	7019
1	1654	7020
1	1655	7021
1	1647	7022
1	1643	7023
1	1640	7024
1	1633	7025
1	1618	7026
1	1605	7027
1	1593	7028
1	1585	7029
1	1573	7030
1	1568	7031
1	1570	7032
1	1576	7033
1	1584	7034
1	1594	7035
1	1599	7036
1	1601	7037
1	1595	7038
1	1581	7039
1	1575	7040
1	1561	7041
1	1553	7042
1	1544	7043
1	1532	7044
1	1523	7045
1	1508	7046
1	1503	7047
1	1495	7048
1	1490	7049
1	1490	7050
1	1502	7051
1	1513	7052
1	1529	7053
1	1551	7054
1	1568	7055
1	1583	7056
1	1597	7057
1	1608	7058
1	1615	7059
1	1616	7060
1	1605	7061
1	1593	7062
1	1580	7063
1	1562	7064
1	1555	7065
1	1554	7066
1	1557	7067
1	1562	7068
1	1568	7069
1	1577	7070
1	1581	7071
1	1587	7072
1	1592	7073
1	1597	7074
1	1607	7075
1	1607	7076
1	1607	7077
1	1607	7078
1	1607	7079
1	1598	7080
1	1595	7081
1	1582	7082
1	1567	7083
1	1543	7084
1	1518	7085
1	1496	7086
1	1481	7087
1	1478	7088
1	1485	7089
1	1499	7090
1	1505	7091
1	1525	7092
1	1546	7093
1	1573	7094
1	1595	7095
1	1620	7096
1	1629	7097
1	1623	7098
1	1608	7099
1	1582	7100
1	1551	7101
1	1515	7102
1	1482	7103
1	1456	7104
1	1449	7105
1	1445	7106
1	1462	7107
1	1488	7108
1	1514	7109
1	1544	7110
1	1577	7111
1	1603	7112
1	1626	7113
1	1645	7114
1	1660	7115
1	1673	7116
1	1680	7117
1	1679	7118
1	1670	7119
1	1656	7120
1	1634	7121
1	1618	7122
1	1602	7123
1	1584	7124
1	1569	7125
1	1560	7126
1	1554	7127
1	1554	7128
1	1557	7129
1	1562	7130
1	1573	7131
1	1582	7132
1	1594	7133
1	1605	7134
1	1607	7135
1	1608	7136
1	1610	7137
1	1608	7138
1	1607	7139
1	1599	7140
1	1592	7141
1	1581	7142
1	1568	7143
1	1551	7144
1	1538	7145
1	1520	7146
1	1503	7147
1	1499	7148
1	1495	7149
1	1501	7150
1	1507	7151
1	1528	7152
1	1548	7153
1	1566	7154
1	1580	7155
1	1598	7156
1	1603	7157
1	1598	7158
1	1587	7159
1	1684	7180
1	1670	7181
1	1657	7182
1	1639	7183
1	1621	7184
1	1600	7185
1	1589	7186
1	1577	7187
1	1572	7188
1	1573	7189
1	1580	7190
1	1593	7191
1	1608	7192
1	1620	7193
1	1629	7194
1	1634	7195
1	1625	7196
1	1618	7197
1	1610	7198
1	1607	7199
1	1575	7160
1	1567	7161
1	1561	7162
1	1566	7163
1	1569	7164
1	1575	7165
1	1562	7166
1	1555	7167
1	1544	7168
1	1539	7169
1	1540	7170
1	1553	7171
1	1563	7172
1	1582	7173
1	1607	7174
1	1631	7175
1	1647	7176
1	1665	7177
1	1680	7178
1	1686	7179
1	1607	7200
1	1607	7201
1	1607	7202
1	1598	7203
1	1589	7204
1	1582	7205
1	1580	7206
1	1582	7207
1	1589	7208
1	1595	7209
1	1603	7210
1	1599	7211
1	1606	7212
1	1612	7213
1	1631	7214
1	1649	7215
1	1675	7216
1	1690	7217
1	1701	7218
1	1706	7219
1	1711	7220
1	1710	7221
1	1701	7222
1	1687	7223
1	1673	7224
1	1656	7225
1	1634	7226
1	1611	7227
1	1598	7228
1	1590	7229
1	1592	7230
1	1606	7231
1	1613	7232
1	1636	7233
1	1661	7234
1	1685	7235
1	1697	7236
1	1701	7237
1	1699	7238
1	1694	7239
1	1682	7240
1	1661	7241
1	1644	7242
1	1622	7243
1	1602	7244
1	1580	7245
1	1551	7246
1	1525	7247
1	1503	7248
1	1491	7249
1	1492	7250
1	1494	7251
1	1503	7252
1	1528	7253
1	1548	7254
1	1576	7255
1	1600	7256
1	1625	7257
1	1644	7258
1	1656	7259
1	1656	7260
1	1655	7261
1	1643	7262
1	1624	7263
1	1597	7264
1	1568	7265
1	1543	7266
1	1526	7267
1	1516	7268
1	1512	7269
1	1522	7270
1	1532	7271
1	1555	7272
1	1581	7273
1	1602	7274
1	1622	7275
1	1645	7276
1	1652	7277
1	1660	7278
1	1656	7279
1	1647	7280
1	1636	7281
1	1618	7282
1	1594	7283
1	1567	7284
1	1542	7285
1	1518	7286
1	1503	7287
1	1487	7288
1	1476	7289
1	1468	7290
1	1473	7291
1	1480	7292
1	1490	7293
1	1502	7294
1	1512	7295
1	1520	7296
1	1529	7297
1	1536	7298
1	1544	7299
1	1551	7300
1	1553	7301
1	1555	7302
1	1554	7303
1	1548	7304
1	1543	7305
1	1548	7306
1	1558	7307
1	1569	7308
1	1584	7309
1	1600	7310
1	1616	7311
1	1634	7312
1	1655	7313
1	1671	7314
1	1688	7315
1	1690	7316
1	1696	7317
1	1696	7318
1	1687	7319
1	1675	7320
1	1671	7321
1	1660	7322
1	1646	7323
1	1629	7324
1	1608	7325
1	1593	7326
1	1581	7327
1	1569	7328
1	1559	7329
1	1549	7330
1	1542	7331
1	1542	7332
1	1549	7333
1	1562	7334
1	1576	7335
1	1584	7336
1	1595	7337
1	1602	7338
1	1608	7339
1	1625	7340
1	1632	7341
1	1638	7342
1	1641	7343
1	1643	7344
1	1646	7345
1	1647	7346
1	1670	7347
1	1699	7348
1	1733	7349
1	1772	7350
1	1819	7351
1	1856	7352
1	1892	7353
1	1921	7354
1	1940	7355
1	1959	7356
1	1971	7357
1	1974	7358
1	1965	7359
1	1948	7360
1	1922	7361
1	1899	7362
1	1882	7363
1	1861	7364
1	1844	7365
1	1843	7366
1	1838	7367
1	1832	7368
1	1827	7369
1	1823	7370
1	1822	7371
1	1831	7372
1	1847	7373
1	1867	7374
1	1882	7375
1	1880	7376
1	1873	7377
1	1858	7378
1	1836	7379
1	1798	7380
1	1768	7381
1	1731	7382
1	1690	7383
1	1651	7384
1	1616	7385
1	1592	7386
1	1579	7387
1	1563	7388
1	1557	7389
1	1559	7390
1	1571	7391
1	1581	7392
1	1593	7393
1	1605	7394
1	1613	7395
1	1623	7396
1	1625	7397
1	1629	7398
1	1628	7399
1	1629	7400
1	1629	7401
1	1628	7402
1	1623	7403
1	1613	7404
1	1602	7405
1	1580	7406
1	1562	7407
1	1553	7408
1	1543	7409
1	1539	7410
1	1546	7411
1	1555	7412
1	1569	7413
1	1581	7414
1	1589	7415
1	1593	7416
1	1592	7417
1	1581	7418
1	1571	7419
1	1556	7420
1	1537	7421
1	1524	7422
1	1514	7423
1	1511	7424
1	1511	7425
1	1522	7426
1	1536	7427
1	1562	7428
1	1603	7429
1	1637	7430
1	1679	7431
1	1718	7432
1	1756	7433
1	1788	7434
1	1811	7435
1	1817	7436
1	1814	7437
1	1796	7438
1	1782	7439
1	1764	7440
1	1751	7441
1	1731	7442
1	1705	7443
1	1673	7444
1	1644	7445
1	1609	7446
1	1583	7447
1	1568	7448
1	1561	7449
1	1571	7450
1	1583	7451
1	1602	7452
1	1618	7453
1	1634	7454
1	1652	7455
1	1673	7456
1	1683	7457
1	1686	7458
1	1686	7459
1	1687	7480
1	1681	7481
1	1675	7482
1	1667	7483
1	1657	7484
1	1647	7485
1	1644	7486
1	1636	7487
1	1634	7488
1	1633	7489
1	1634	7490
1	1645	7491
1	1656	7492
1	1665	7493
1	1683	7494
1	1694	7495
1	1699	7496
1	1705	7497
1	1705	7498
1	1701	7499
1	1701	7500
1	1702	7501
1	1694	7502
1	1683	7503
1	1664	7504
1	1652	7505
1	1643	7506
1	1638	7507
1	1641	7508
1	1650	7509
1	1662	7510
1	1674	7511
1	1687	7512
1	1706	7513
1	1728	7514
1	1751	7515
1	1779	7516
1	1791	7517
1	1792	7518
1	1782	7519
1	1682	7460
1	1674	7461
1	1664	7462
1	1652	7463
1	1647	7464
1	1641	7465
1	1634	7466
1	1636	7467
1	1638	7468
1	1644	7469
1	1647	7470
1	1660	7471
1	1670	7472
1	1681	7473
1	1686	7474
1	1693	7475
1	1698	7476
1	1697	7477
1	1697	7478
1	1691	7479
1	1764	7520
1	1751	7521
1	1738	7522
1	1724	7523
1	1716	7524
1	1715	7525
1	1712	7526
1	1716	7527
1	1728	7528
1	1738	7529
1	1750	7530
1	1764	7531
1	1765	7532
1	1775	7533
1	1777	7534
1	1778	7535
1	1770	7536
1	1772	7537
1	1766	7538
1	1763	7539
1	1754	7540
1	1749	7541
1	1738	7542
1	1730	7543
1	1716	7544
1	1701	7545
1	1686	7546
1	1668	7547
1	1649	7548
1	1636	7549
1	1643	7550
1	1649	7551
1	1664	7552
1	1686	7553
1	1706	7554
1	1725	7555
1	1737	7556
1	1753	7557
1	1767	7558
1	1782	7559
1	1789	7560
1	1798	7561
1	1796	7562
1	1799	7563
1	1793	7564
1	1790	7565
1	1782	7566
1	1780	7567
1	1786	7568
1	1796	7569
1	1817	7570
1	1832	7571
1	1856	7572
1	1878	7573
1	1900	7574
1	1914	7575
1	1926	7576
1	1927	7577
1	1926	7578
1	1911	7579
1	1891	7600
1	1862	7601
1	1843	7602
1	1821	7603
1	1801	7604
1	1785	7605
1	1764	7606
1	1750	7607
1	1730	7608
1	1718	7609
1	1723	7610
1	1743	7611
1	1764	7612
1	1787	7613
1	1815	7614
1	1836	7615
1	1851	7616
1	1866	7617
1	1873	7618
1	1878	7619
1	1871	7600
1	1856	7601
1	1848	7602
1	1839	7603
1	1828	7604
1	1818	7605
1	1821	7606
1	1818	7607
1	1816	7608
1	1808	7609
1	1801	7610
1	1809	7611
1	1817	7612
1	1831	7613
1	1845	7614
1	1856	7615
1	1852	7616
1	1843	7617
1	1831	7618
1	1819	7619
1	1812	7620
1	1803	7621
1	1798	7622
1	1791	7623
1	1780	7624
1	1765	7625
1	1752	7626
1	1736	7627
1	1718	7628
1	1705	7629
1	1693	7630
1	1692	7631
1	1698	7632
1	1711	7633
1	1729	7634
1	1742	7635
1	1751	7636
1	1756	7637
1	1754	7638
1	1751	7639
1	1747	7640
1	1733	7641
1	1711	7642
1	1686	7643
1	1660	7644
1	1643	7645
1	1623	7646
1	1612	7647
1	1607	7648
1	1606	7649
1	1610	7650
1	1621	7651
1	1633	7652
1	1647	7653
1	1665	7654
1	1690	7655
1	1713	7656
1	1734	7657
1	1738	7658
1	1739	7659
1	1735	7660
1	1711	7661
1	1685	7662
1	1657	7663
1	1621	7664
1	1593	7665
1	1580	7666
1	1566	7667
1	1555	7668
1	1549	7669
1	1543	7670
1	1544	7671
1	1544	7672
1	1555	7673
1	1569	7674
1	1585	7675
1	1593	7676
1	1602	7677
1	1606	7678
1	1606	7679
1	1607	7680
1	1612	7681
1	1607	7682
1	1593	7683
1	1576	7684
1	1557	7685
1	1543	7686
1	1533	7687
1	1528	7688
1	1531	7689
1	1545	7690
1	1566	7691
1	1585	7692
1	1607	7693
1	1622	7694
1	1636	7695
1	1644	7696
1	1647	7697
1	1647	7698
1	1647	7699
1	1642	7700
1	1634	7701
1	1615	7702
1	1593	7703
1	1569	7704
1	1542	7705
1	1517	7706
1	1503	7707
1	1501	7708
1	1503	7709
1	1513	7710
1	1533	7711
1	1549	7712
1	1566	7713
1	1581	7714
1	1593	7715
1	1599	7716
1	1602	7717
1	1596	7718
1	1587	7719
1	1611	7740
1	1581	7741
1	1543	7742
1	1506	7743
1	1476	7744
1	1449	7745
1	1420	7746
1	1398	7747
1	1384	7748
1	1394	7749
1	1403	7750
1	1419	7751
1	1443	7752
1	1476	7753
1	1514	7754
1	1554	7755
1	1600	7756
1	1634	7757
1	1661	7758
1	1682	7759
1	1580	7720
1	1567	7721
1	1561	7722
1	1562	7723
1	1561	7724
1	1555	7725
1	1557	7726
1	1557	7727
1	1567	7728
1	1579	7729
1	1586	7730
1	1604	7731
1	1622	7732
1	1638	7733
1	1660	7734
1	1675	7735
1	1686	7736
1	1683	7737
1	1665	7738
1	1643	7739
1	1690	7760
1	1688	7761
1	1678	7762
1	1664	7763
1	1650	7764
1	1638	7765
1	1623	7766
1	1613	7767
1	1605	7768
1	1598	7769
1	1597	7770
1	1603	7771
1	1608	7772
1	1619	7773
1	1634	7774
1	1646	7775
1	1656	7776
1	1659	7777
1	1654	7778
1	1648	7779
1	1641	7780
1	1626	7781
1	1607	7782
1	1591	7783
1	1569	7784
1	1548	7785
1	1535	7786
1	1517	7787
1	1498	7788
1	1482	7789
1	1476	7790
1	1477	7791
1	1485	7792
1	1501	7793
1	1521	7794
1	1547	7795
1	1570	7796
1	1593	7797
1	1607	7798
1	1617	7799
1	1624	7800
1	1617	7801
1	1608	7802
1	1604	7803
1	1594	7804
1	1589	7805
1	1582	7806
1	1585	7807
1	1587	7808
1	1587	7809
1	1593	7810
1	1605	7811
1	1626	7812
1	1654	7813
1	1682	7814
1	1702	7815
1	1728	7816
1	1739	7817
1	1747	7818
1	1742	7819
1	1724	7820
1	1692	7821
1	1647	7822
1	1602	7823
1	1554	7824
1	1508	7825
1	1461	7826
1	1433	7827
1	1420	7828
1	1423	7829
1	1437	7830
1	1474	7831
1	1503	7832
1	1544	7833
1	1581	7834
1	1606	7835
1	1623	7836
1	1626	7837
1	1629	7838
1	1629	7839
1	1633	7840
1	1639	7841
1	1644	7842
1	1639	7843
1	1626	7844
1	1607	7845
1	1590	7846
1	1581	7847
1	1580	7848
1	1583	7849
1	1598	7850
1	1612	7851
1	1633	7852
1	1647	7853
1	1660	7854
1	1668	7855
1	1670	7856
1	1670	7857
1	1671	7858
1	1671	7859
1	1664	7860
1	1660	7861
1	1641	7862
1	1623	7863
1	1600	7864
1	1582	7865
1	1571	7866
1	1561	7867
1	1559	7868
1	1566	7869
1	1578	7870
1	1584	7871
1	1598	7872
1	1610	7873
1	1625	7874
1	1642	7875
1	1661	7876
1	1673	7877
1	1683	7878
1	1687	7879
1	1686	7880
1	1683	7881
1	1667	7882
1	1647	7883
1	1623	7884
1	1596	7885
1	1561	7886
1	1536	7887
1	1517	7888
1	1503	7889
1	1498	7890
1	1503	7891
1	1517	7892
1	1535	7893
1	1559	7894
1	1584	7895
1	1606	7896
1	1621	7897
1	1634	7898
1	1638	7899
1	1632	7900
1	1611	7901
1	1593	7902
1	1577	7903
1	1555	7904
1	1541	7905
1	1521	7906
1	1507	7907
1	1503	7908
1	1508	7909
1	1526	7910
1	1546	7911
1	1577	7912
1	1615	7913
1	1654	7914
1	1686	7915
1	1710	7916
1	1729	7917
1	1740	7918
1	1742	7919
1	1735	7920
1	1717	7921
1	1687	7922
1	1658	7923
1	1629	7924
1	1602	7925
1	1582	7926
1	1578	7927
1	1577	7928
1	1581	7929
1	1586	7930
1	1603	7931
1	1624	7932
1	1648	7933
1	1665	7934
1	1678	7935
1	1685	7936
1	1687	7937
1	1691	7938
1	1688	7939
1	1688	7940
1	1675	7941
1	1656	7942
1	1634	7943
1	1616	7944
1	1602	7945
1	1584	7946
1	1580	7947
1	1574	7948
1	1567	7949
1	1566	7950
1	1577	7951
1	1581	7952
1	1593	7953
1	1610	7954
1	1628	7955
1	1644	7956
1	1647	7957
1	1638	7958
1	1618	7959
1	1594	7960
1	1563	7961
1	1538	7962
1	1523	7963
1	1511	7964
1	1503	7965
1	1505	7966
1	1507	7967
1	1516	7968
1	1529	7969
1	1549	7970
1	1571	7971
1	1595	7972
1	1625	7973
1	1660	7974
1	1694	7975
1	1716	7976
1	1733	7977
1	1730	7978
1	1720	7979
1	1702	7980
1	1686	7981
1	1659	7982
1	1629	7983
1	1605	7984
1	1584	7985
1	1573	7986
1	1561	7987
1	1561	7988
1	1572	7989
1	1581	7990
1	1594	7991
1	1612	7992
1	1625	7993
1	1634	7994
1	1647	7995
1	1659	7996
1	1661	7997
1	1661	7998
1	1658	7999
1	1654	8000
1	1650	8000
1	1644	8002
1	1638	8003
1	1628	8004
1	1614	8005
1	1594	8006
1	1581	8007
1	1577	8008
1	1579	8009
1	1585	8010
1	1600	8011
1	1607	8012
1	1620	8013
1	1634	8013
1	1658	8015
1	1675	8016
1	1688	8016
1	1692	8018
1	1686	8019
1	1676	8020
1	1656	8021
1	1636	8022
1	1616	8023
1	1598	8024
1	1580	8025
1	1566	8026
1	1553	8027
1	1544	8028
1	1553	8029
1	1555	8029
1	1564	8031
1	1575	8032
1	1591	8032
1	1618	8034
1	1654	8035
1	1683	8036
1	1696	8037
1	1700	8038
1	1692	8039
1	1674	8040
1	1645	8041
1	1606	8042
1	1567	8043
1	1543	8044
1	1530	8045
1	1521	8045
1	1520	8047
1	1529	8048
1	1543	8048
1	1568	8050
1	1593	8051
1	1618	8052
1	1647	8053
1	1672	8054
1	1688	8055
1	1708	8056
1	1710	8057
1	1705	8058
1	1696	8059
1	1685	8060
1	1672	8061
1	1658	8061
1	1647	8063
1	1636	8064
1	1629	8064
1	1619	8066
1	1611	8067
1	1609	8068
1	1611	8069
1	1621	8070
1	1639	8071
1	1661	8072
1	1684	8073
1	1704	8074
1	1722	8074
1	1737	8076
1	1749	8077
1	1748	8077
1	1738	8079
1	1723	8080
1	1701	8080
1	1681	8082
1	1656	8083
1	1634	8084
1	1607	8085
1	1590	8086
1	1580	8087
1	1575	8088
1	1582	8089
1	1593	8090
1	1607	8090
1	1611	8092
1	1622	8093
1	1634	8093
1	1659	8095
1	1680	8096
1	1706	8096
1	1728	8098
1	1747	8099
1	1764	8100
1	1778	8101
1	1778	8102
1	1772	8103
1	1759	8104
1	1738	8105
1	1713	8106
1	1693	8106
1	1678	8108
1	1670	8109
1	1664	8109
1	1661	8111
1	1669	8112
1	1679	8113
1	1690	8114
1	1704	8115
1	1716	8116
1	1716	8117
1	1712	8118
1	1706	8119
1	1694	8120
1	1684	8121
1	1671	8122
1	1657	8122
1	1641	8124
1	1633	8125
1	1616	8125
1	1603	8127
1	1596	8128
1	1598	8129
1	1607	8130
1	1629	8131
1	1634	8132
1	1655	8133
1	1665	8134
1	1674	8135
1	1685	8136
1	1692	8137
1	1690	8138
1	1686	8138
1	1674	8140
1	1656	8141
1	1630	8141
1	1600	8143
1	1570	8144
1	1538	8145
1	1512	8146
1	1497	8147
1	1489	8148
1	1487	8149
1	1497	8150
1	1507	8151
1	1533	8152
1	1564	8153
1	1594	8154
1	1623	8154
1	1638	8156
1	1650	8157
1	1652	8157
1	1646	8159
1	1634	8160
1	1628	8161
1	1612	8162
1	1607	8163
1	1602	8164
1	1594	8165
1	1585	8166
1	1582	8167
1	1584	8168
1	1593	8169
1	1600	8170
1	1598	8170
1	1603	8172
1	1608	8173
1	1626	8173
1	1642	8175
1	1665	8176
1	1686	8177
1	1700	8178
1	1710	8179
1	1710	8180
1	1711	8181
1	1704	8182
1	1694	8183
1	1683	8184
1	1674	8185
1	1665	8186
1	1661	8186
1	1661	8188
1	1661	8189
1	1665	8189
1	1680	8191
1	1685	8192
1	1690	8193
1	1697	8194
1	1706	8195
1	1712	8196
1	1713	8197
1	1701	8198
1	1683	8199
1	1655	8200
1	1618	8201
1	1584	8202
1	1548	8203
1	1513	8204
1	1487	8205
1	1466	8206
1	1449	8207
1	1437	8208
1	1436	8209
1	1449	8210
1	1475	8211
1	1508	8212
1	1548	8213
1	1589	8214
1	1633	8215
1	1665	8216
1	1698	8217
1	1724	8218
1	1744	8219
1	1766	8220
1	1801	8221
1	1827	8222
1	1848	8223
1	1869	8224
1	1893	8225
1	1922	8226
1	1963	8227
1	2003	8228
1	2040	8229
1	2057	8230
1	2071	8231
1	2086	8232
1	2097	8233
1	2105	8234
1	2106	8235
1	2102	8236
1	2088	8237
1	2066	8238
1	2032	8239
1	2005	8240
1	1971	8241
1	1940	8242
1	1908	8243
1	1872	8244
1	1843	8245
1	1801	8246
1	1768	8247
1	1746	8248
1	1731	8249
1	1719	8250
1	1715	8251
1	1712	8252
1	1710	8253
1	1712	8254
1	1714	8255
1	1713	8256
1	1713	8257
1	1712	8258
1	1706	8259
1	1698	8260
1	1679	8261
1	1661	8262
1	1646	8263
1	1633	8264
1	1619	8265
1	1619	8266
1	1620	8267
1	1629	8268
1	1636	8269
1	1642	8270
1	1647	8271
1	1655	8272
1	1660	8273
1	1664	8274
1	1670	8275
1	1664	8276
1	1664	8277
1	1661	8278
1	1660	8279
1	1653	8280
1	1650	8281
1	1638	8282
1	1613	8283
1	1584	8284
1	1555	8285
1	1529	8286
1	1515	8287
1	1503	8288
1	1503	8289
1	1508	8290
1	1517	8291
1	1530	8292
1	1548	8293
1	1569	8294
1	1589	8295
1	1618	8296
1	1645	8297
1	1662	8298
1	1677	8299
1	1683	8300
1	1682	8301
1	1669	8302
1	1660	8303
1	1655	8304
1	1652	8305
1	1647	8306
1	1649	8307
1	1656	8308
1	1660	8309
1	1661	8310
1	1670	8311
1	1670	8312
1	1677	8313
1	1685	8314
1	1695	8315
1	1704	8316
1	1712	8317
1	1713	8318
1	1710	8319
1	1698	8320
1	1683	8321
1	1669	8322
1	1656	8323
1	1636	8324
1	1613	8325
1	1602	8326
1	1592	8327
1	1587	8328
1	1592	8329
1	1596	8330
1	1610	8331
1	1632	8332
1	1652	8333
1	1675	8334
1	1692	8335
1	1705	8336
1	1718	8337
1	1733	8338
1	1738	8339
1	1736	8340
1	1722	8341
1	1698	8342
1	1669	8343
1	1634	8344
1	1605	8345
1	1575	8346
1	1553	8347
1	1529	8348
1	1517	8349
1	1517	8350
1	1524	8351
1	1540	8352
1	1557	8353
1	1584	8354
1	1611	8355
1	1644	8356
1	1665	8357
1	1682	8358
1	1686	8359
1	1688	8360
1	1692	8361
1	1692	8362
1	1689	8363
1	1683	8364
1	1675	8365
1	1665	8366
1	1667	8367
1	1672	8368
1	1676	8369
1	1683	8370
1	1697	8371
1	1704	8372
1	1713	8373
1	1725	8374
1	1736	8375
1	1740	8376
1	1751	8377
1	1755	8378
1	1751	8379
1	1739	8380
1	1716	8381
1	1691	8382
1	1664	8383
1	1634	8384
1	1604	8385
1	1589	8386
1	1584	8387
1	1584	8388
1	1593	8389
1	1610	8390
1	1638	8391
1	1667	8392
1	1697	8393
1	1727	8394
1	1754	8395
1	1769	8396
1	1787	8397
1	1793	8398
1	1796	8399
1	1791	8400
1	1791	8401
1	1773	8402
1	1746	8403
1	1710	8404
1	1675	8405
1	1647	8406
1	1633	8407
1	1626	8408
1	1631	8409
1	1643	8410
1	1659	8411
1	1681	8412
1	1705	8413
1	1733	8414
1	1755	8415
1	1773	8416
1	1775	8417
1	1778	8418
1	1778	8419
1	1772	8420
1	1764	8421
1	1751	8422
1	1738	8423
1	1723	8424
1	1712	8425
1	1692	8426
1	1679	8427
1	1672	8428
1	1677	8429
1	1692	8430
1	1721	8431
1	1752	8432
1	1779	8433
1	1823	8434
1	1849	8435
1	1868	8436
1	1872	8437
1	1871	8438
1	1868	8439
1	1856	8440
1	1837	8441
1	1809	8442
1	1769	8443
1	1734	8444
1	1704	8445
1	1686	8446
1	1673	8447
1	1662	8448
1	1662	8449
1	1675	8450
1	1688	8451
1	1710	8452
1	1736	8453
1	1764	8454
1	1793	8455
1	1818	8456
1	1843	8457
1	1866	8458
1	1880	8459
1	1841	8480
1	1835	8481
1	1824	8482
1	1811	8483
1	1796	8484
1	1787	8485
1	1767	8486
1	1754	8487
1	1746	8488
1	1738	8489
1	1736	8490
1	1739	8491
1	1751	8492
1	1763	8493
1	1773	8494
1	1790	8495
1	1796	8496
1	1795	8497
1	1800	8498
1	1802	8499
1	1888	8460
1	1893	8461
1	1878	8462
1	1865	8463
1	1854	8464
1	1839	8465
1	1817	8466
1	1793	8467
1	1780	8468
1	1773	8469
1	1766	8470
1	1760	8471
1	1764	8472
1	1772	8473
1	1787	8474
1	1803	8475
1	1819	8476
1	1828	8477
1	1834	8478
1	1836	8479
1	1803	8500
1	1791	8501
1	1778	8502
1	1764	8503
1	1753	8504
1	1739	8505
1	1736	8506
1	1726	8507
1	1721	8508
1	1712	8509
1	1711	8510
1	1715	8511
1	1721	8512
1	1724	8513
1	1725	8514
1	1728	8515
1	1723	8516
1	1721	8517
1	1716	8518
1	1709	8519
1	1694	8520
1	1682	8521
1	1659	8522
1	1634	8523
1	1610	8524
1	1593	8525
1	1581	8526
1	1566	8527
1	1555	8528
1	1544	8529
1	1530	8530
1	1524	8531
1	1523	8532
1	1523	8533
1	1530	8534
1	1553	8535
1	1573	8536
1	1594	8537
1	1603	8538
1	1610	8539
1	1623	8540
1	1628	8541
1	1633	8542
1	1634	8543
1	1638	8544
1	1642	8545
1	1634	8546
1	1629	8547
1	1620	8548
1	1607	8549
1	1592	8550
1	1587	8551
1	1587	8552
1	1589	8553
1	1586	8554
1	1590	8555
1	1595	8556
1	1605	8557
1	1610	8558
1	1615	8559
1	1610	8560
1	1593	8561
1	1569	8562
1	1539	8563
1	1505	8564
1	1467	8565
1	1436	8566
1	1406	8567
1	1384	8568
1	1379	8569
1	1383	8570
1	1400	8571
1	1424	8572
1	1452	8573
1	1485	8574
1	1521	8575
1	1551	8576
1	1581	8577
1	1605	8578
1	1618	8579
1	1622	8580
1	1620	8581
1	1603	8582
1	1580	8583
1	1546	8584
1	1513	8585
1	1487	8586
1	1467	8587
1	1446	8588
1	1437	8589
1	1440	8590
1	1454	8591
1	1479	8592
1	1507	8593
1	1540	8594
1	1569	8595
1	1595	8596
1	1608	8597
1	1611	8598
1	1607	8599
1	1600	8600
1	1590	8601
1	1572	8602
1	1546	8603
1	1518	8604
1	1499	8605
1	1485	8606
1	1489	8607
1	1498	8608
1	1508	8609
1	1518	8610
1	1539	8611
1	1557	8612
1	1582	8613
1	1607	8614
1	1629	8615
1	1639	8616
1	1647	8617
1	1646	8618
1	1636	8619
1	1620	8620
1	1597	8621
1	1579	8622
1	1555	8623
1	1527	8624
1	1500	8625
1	1477	8626
1	1454	8627
1	1439	8628
1	1436	8629
1	1437	8630
1	1450	8631
1	1467	8632
1	1480	8633
1	1493	8634
1	1508	8635
1	1525	8636
1	1537	8637
1	1547	8638
1	1546	8639
1	1620	8660
1	1596	8661
1	1570	8662
1	1543	8663
1	1518	8664
1	1492	8665
1	1468	8666
1	1450	8667
1	1442	8668
1	1447	8669
1	1464	8670
1	1492	8671
1	1525	8672
1	1555	8673
1	1589	8674
1	1616	8675
1	1643	8676
1	1660	8677
1	1670	8678
1	1671	8679
1	1535	8640
1	1518	8641
1	1503	8642
1	1481	8643
1	1467	8644
1	1463	8645
1	1463	8646
1	1472	8647
1	1489	8648
1	1515	8649
1	1539	8650
1	1555	8651
1	1574	8652
1	1595	8653
1	1611	8654
1	1631	8655
1	1649	8656
1	1656	8657
1	1655	8658
1	1641	8659
1	1660	8680
1	1635	8681
1	1607	8682
1	1581	8683
1	1555	8684
1	1529	8685
1	1510	8686
1	1490	8687
1	1473	8688
1	1476	8689
1	1476	8690
1	1481	8691
1	1494	8692
1	1514	8693
1	1536	8694
1	1556	8695
1	1576	8696
1	1593	8697
1	1607	8698
1	1611	8699
1	1613	8700
1	1613	8701
1	1607	8702
1	1595	8703
1	1577	8704
1	1556	8705
1	1538	8706
1	1521	8707
1	1513	8708
1	1508	8709
1	1508	8710
1	1506	8711
1	1508	8712
1	1513	8713
1	1526	8714
1	1536	8715
1	1546	8716
1	1543	8717
1	1540	8718
1	1533	8719
1	1530	8720
1	1530	8721
1	1532	8722
1	1533	8723
1	1529	8724
1	1517	8725
1	1504	8726
1	1498	8727
1	1489	8728
1	1481	8729
1	1480	8730
1	1490	8731
1	1497	8732
1	1495	8733
1	1508	8734
1	1521	8735
1	1528	8736
1	1529	8737
1	1536	8738
1	1545	8739
1	1557	8740
1	1567	8741
1	1576	8742
1	1581	8743
1	1581	8744
1	1582	8745
1	1579	8746
1	1583	8747
1	1571	8748
1	1571	8749
1	1580	8750
1	1585	8751
1	1594	8752
1	1602	8753
1	1607	8754
1	1609	8755
1	1607	8756
1	1604	8757
1	1595	8758
1	1582	8759
1	1564	8760
1	1552	8761
1	1532	8762
1	1521	8763
1	1504	8764
1	1494	8765
1	1486	8766
1	1477	8767
1	1476	8768
1	1476	8769
1	1476	8770
1	1474	8771
1	1476	8772
1	1489	8773
1	1503	8774
1	1521	8775
1	1543	8776
1	1558	8777
1	1573	8778
1	1570	8779
1	1559	8780
1	1553	8781
1	1546	8782
1	1545	8783
1	1546	8784
1	1554	8785
1	1562	8786
1	1582	8787
1	1598	8788
1	1610	8789
1	1626	8790
1	1647	8791
1	1656	8792
1	1664	8793
1	1669	8794
1	1664	8795
1	1651	8796
1	1632	8797
1	1607	8798
1	1582	8799
1	1558	8800
1	1533	8801
1	1505	8802
1	1477	8803
1	1451	8804
1	1424	8805
1	1409	8806
1	1394	8807
1	1393	8808
1	1408	8809
1	1429	8810
1	1458	8811
1	1494	8812
1	1534	8813
1	1578	8814
1	1615	8815
1	1638	8816
1	1651	8817
1	1655	8818
1	1648	8819
1	1636	8820
1	1626	8821
1	1607	8822
1	1590	8823
1	1571	8824
1	1556	8825
1	1544	8826
1	1532	8827
1	1517	8828
1	1505	8829
1	1498	8830
1	1499	8831
1	1500	8832
1	1504	8833
1	1510	8834
1	1521	8835
1	1531	8836
1	1546	8837
1	1543	8838
1	1546	8839
1	1559	8840
1	1574	8841
1	1582	8842
1	1587	8843
1	1584	8844
1	1581	8845
1	1569	8846
1	1555	8847
1	1542	8848
1	1529	8849
1	1517	8850
1	1517	8851
1	1521	8852
1	1531	8853
1	1551	8854
1	1571	8855
1	1592	8856
1	1607	8857
1	1616	8858
1	1621	8859
1	1622	8860
1	1610	8861
1	1594	8862
1	1571	8863
1	1548	8864
1	1529	8865
1	1523	8866
1	1517	8867
1	1524	8868
1	1529	8869
1	1542	8870
1	1555	8871
1	1576	8872
1	1596	8873
1	1611	8874
1	1626	8875
1	1634	8876
1	1637	8877
1	1639	8878
1	1635	8879
1	1633	8880
1	1630	8881
1	1616	8882
1	1602	8883
1	1582	8884
1	1567	8885
1	1551	8886
1	1540	8887
1	1536	8888
1	1537	8889
1	1535	8890
1	1529	8891
1	1529	8892
1	1530	8893
1	1537	8894
1	1546	8895
1	1559	8896
1	1567	8897
1	1572	8898
1	1580	8899
1	1582	8900
1	1587	8901
1	1586	8902
1	1581	8903
1	1573	8904
1	1566	8905
1	1554	8906
1	1538	8907
1	1530	8908
1	1525	8909
1	1528	8910
1	1539	8911
1	1549	8912
1	1564	8913
1	1575	8914
1	1584	8915
1	1589	8916
1	1592	8917
1	1590	8918
1	1579	8919
1	1558	8920
1	1531	8921
1	1514	8922
1	1503	8923
1	1500	8924
1	1503	8925
1	1519	8926
1	1535	8927
1	1555	8928
1	1579	8929
1	1593	8930
1	1616	8931
1	1643	8932
1	1665	8933
1	1688	8934
1	1703	8935
1	1711	8936
1	1706	8937
1	1695	8938
1	1674	8939
1	1646	8940
1	1618	8941
1	1594	8942
1	1558	8943
1	1539	8944
1	1531	8945
1	1529	8946
1	1529	8947
1	1537	8948
1	1553	8949
1	1566	8950
1	1580	8951
1	1593	8952
1	1607	8953
1	1619	8954
1	1638	8955
1	1660	8956
1	1674	8957
1	1685	8958
1	1688	8959
1	1688	8960
1	1685	8961
1	1678	8962
1	1664	8963
1	1647	8964
1	1631	8965
1	1607	8966
1	1592	8967
1	1593	8968
1	1607	8969
1	1632	8970
1	1665	8971
1	1701	8972
1	1738	8973
1	1775	8974
1	1813	8975
1	1836	8976
1	1843	8977
1	1843	8978
1	1832	8979
1	1813	8980
1	1773	8981
1	1736	8982
1	1686	8983
1	1642	8984
1	1603	8985
1	1581	8986
1	1562	8987
1	1553	8988
1	1551	8989
1	1555	8990
1	1567	8991
1	1589	8992
1	1620	8993
1	1651	8994
1	1680	8995
1	1695	8996
1	1708	8997
1	1713	8998
1	1705	8999
1	1688	9000
1	1669	9001
1	1642	9002
1	1618	9003
1	1587	9004
1	1566	9005
1	1557	9006
1	1559	9007
1	1569	9008
1	1589	9009
1	1610	9010
1	1633	9011
1	1656	9012
1	1679	9013
1	1694	9014
1	1699	9015
1	1702	9016
1	1692	9017
1	1675	9018
1	1655	9019
1	1632	9020
1	1602	9021
1	1579	9022
1	1555	9023
1	1534	9024
1	1521	9025
1	1503	9026
1	1490	9027
1	1485	9028
1	1490	9029
1	1503	9030
1	1531	9031
1	1553	9032
1	1581	9033
1	1623	9034
1	1649	9035
1	1665	9036
1	1683	9037
1	1691	9038
1	1689	9039
1	1684	9040
1	1672	9041
1	1656	9042
1	1634	9043
1	1611	9044
1	1597	9045
1	1580	9046
1	1565	9047
1	1556	9048
1	1561	9049
1	1572	9050
1	1580	9051
1	1581	9052
1	1584	9053
1	1582	9054
1	1581	9055
1	1569	9056
1	1566	9057
1	1564	9058
1	1560	9059
1	1652	9080
1	1658	9081
1	1662	9082
1	1667	9083
1	1665	9084
1	1661	9085
1	1654	9086
1	1649	9087
1	1647	9088
1	1642	9089
1	1638	9090
1	1643	9091
1	1647	9092
1	1652	9093
1	1658	9094
1	1660	9095
1	1664	9096
1	1671	9097
1	1672	9098
1	1674	9099
1	1560	9060
1	1566	9061
1	1557	9062
1	1545	9063
1	1533	9064
1	1517	9065
1	1503	9066
1	1503	9067
1	1503	9068
1	1517	9069
1	1534	9070
1	1551	9071
1	1580	9072
1	1607	9073
1	1633	9074
1	1651	9075
1	1661	9076
1	1661	9077
1	1660	9078
1	1656	9079
1	1671	9100
1	1660	9101
1	1650	9102
1	1645	9103
1	1640	9104
1	1643	9105
1	1654	9106
1	1660	9107
1	1667	9108
1	1679	9109
1	1700	9110
1	1738	9111
1	1782	9112
1	1837	9113
1	1891	9114
1	1948	9115
1	1986	9116
1	2021	9117
1	2044	9118
1	2053	9119
1	2065	9120
1	2079	9121
1	2079	9122
1	2075	9123
1	2060	9124
1	2034	9125
1	2001	9126
1	1970	9127
1	1948	9128
1	1939	9129
1	1929	9130
1	1925	9131
1	1916	9132
1	1901	9133
1	1884	9134
1	1861	9135
1	1843	9136
1	1822	9137
1	1798	9138
1	1778	9139
1	1764	9140
1	1738	9141
1	1712	9142
1	1685	9143
1	1655	9144
1	1626	9145
1	1598	9146
1	1582	9147
1	1577	9148
1	1575	9149
1	1581	9150
1	1598	9151
1	1609	9152
1	1629	9153
1	1650	9154
1	1673	9155
1	1698	9156
1	1720	9157
1	1741	9158
1	1752	9159
1	1762	9160
1	1752	9161
1	1741	9162
1	1727	9163
1	1710	9164
1	1694	9165
1	1686	9166
1	1671	9167
1	1660	9168
1	1656	9169
1	1656	9170
1	1657	9171
1	1660	9172
1	1662	9173
1	1671	9174
1	1680	9175
1	1682	9176
1	1679	9177
1	1665	9178
1	1644	9179
1	1708	9200
1	1693	9201
1	1682	9202
1	1665	9203
1	1652	9204
1	1639	9205
1	1621	9206
1	1610	9207
1	1607	9208
1	1608	9209
1	1620	9210
1	1633	9211
1	1636	9212
1	1647	9213
1	1658	9214
1	1672	9215
1	1684	9216
1	1699	9217
1	1712	9218
1	1723	9219
1	1623	9180
1	1607	9181
1	1593	9182
1	1579	9183
1	1563	9184
1	1554	9185
1	1548	9186
1	1548	9187
1	1554	9188
1	1571	9189
1	1593	9190
1	1620	9191
1	1658	9192
1	1697	9193
1	1727	9194
1	1750	9195
1	1764	9196
1	1760	9197
1	1751	9198
1	1728	9199
1	1728	9220
1	1716	9221
1	1704	9222
1	1686	9223
1	1667	9224
1	1652	9225
1	1652	9226
1	1656	9227
1	1662	9228
1	1679	9229
1	1692	9230
1	1711	9231
1	1726	9232
1	1741	9233
1	1752	9234
1	1757	9235
1	1753	9236
1	1743	9237
1	1728	9238
1	1705	9239
1	1681	9240
1	1654	9241
1	1632	9242
1	1607	9243
1	1585	9244
1	1574	9245
1	1566	9246
1	1560	9247
1	1571	9248
1	1594	9249
1	1622	9250
1	1646	9251
1	1674	9252
1	1705	9253
1	1735	9254
1	1763	9255
1	1792	9256
1	1818	9257
1	1841	9258
1	1856	9259
1	1869	9260
1	1877	9261
1	1875	9262
1	1863	9263
1	1845	9264
1	1824	9265
1	1791	9266
1	1764	9267
1	1738	9268
1	1719	9269
1	1709	9270
1	1708	9271
1	1706	9272
1	1710	9273
1	1715	9274
1	1729	9275
1	1750	9276
1	1764	9277
1	1773	9278
1	1769	9279
1	1762	9280
1	1741	9281
1	1721	9282
1	1703	9283
1	1688	9284
1	1680	9285
1	1675	9286
1	1669	9287
1	1674	9288
1	1688	9289
1	1706	9290
1	1726	9291
1	1749	9292
1	1769	9293
1	1791	9294
1	1809	9295
1	1823	9296
1	1839	9297
1	1845	9298
1	1849	9299
1	1855	9300
1	1867	9301
1	1862	9302
1	1846	9303
1	1826	9304
1	1796	9305
1	1769	9306
1	1747	9307
1	1726	9308
1	1715	9309
1	1719	9310
1	1733	9311
1	1751	9312
1	1769	9313
1	1788	9314
1	1799	9315
1	1819	9316
1	1837	9317
1	1845	9318
1	1848	9319
1	1850	9320
1	1849	9321
1	1845	9322
1	1842	9323
1	1831	9324
1	1818	9325
1	1795	9326
1	1785	9327
1	1779	9328
1	1785	9329
1	1791	9330
1	1816	9331
1	1830	9332
1	1855	9333
1	1890	9334
1	1908	9335
1	1922	9336
1	1926	9337
1	1935	9338
1	1939	9339
1	1940	9340
1	1935	9341
1	1922	9342
1	1905	9343
1	1880	9344
1	1859	9345
1	1843	9346
1	1828	9347
1	1817	9348
1	1812	9349
1	1818	9350
1	1832	9351
1	1856	9352
1	1878	9353
1	1895	9354
1	1906	9355
1	1903	9356
1	1906	9357
1	1908	9358
1	1904	9359
1	1904	9380
1	1908	9381
1	1908	9382
1	1900	9383
1	1894	9384
1	1880	9385
1	1862	9386
1	1851	9387
1	1844	9388
1	1839	9389
1	1837	9390
1	1844	9391
1	1847	9392
1	1854	9393
1	1859	9394
1	1863	9395
1	1865	9396
1	1857	9397
1	1847	9398
1	1831	9399
1	1814	9400
1	1787	9401
1	1766	9402
1	1747	9403
1	1723	9404
1	1698	9405
1	1692	9406
1	1684	9407
1	1672	9408
1	1670	9409
1	1678	9410
1	1686	9411
1	1693	9412
1	1705	9413
1	1715	9414
1	1731	9415
1	1734	9416
1	1740	9417
1	1739	9418
1	1730	9419
1	1897	9360
1	1896	9361
1	1886	9362
1	1865	9363
1	1841	9364
1	1814	9365
1	1783	9366
1	1767	9367
1	1759	9368
1	1754	9369
1	1760	9370
1	1764	9371
1	1782	9372
1	1814	9373
1	1839	9374
1	1859	9375
1	1878	9376
1	1890	9377
1	1895	9378
1	1900	9379
1	1611	9440
1	1595	9441
1	1581	9442
1	1566	9443
1	1555	9444
1	1548	9445
1	1544	9446
1	1553	9447
1	1566	9448
1	1581	9449
1	1594	9450
1	1610	9451
1	1624	9452
1	1634	9453
1	1639	9454
1	1638	9455
1	1641	9456
1	1639	9457
1	1634	9458
1	1626	9459
1	1715	9420
1	1705	9421
1	1686	9422
1	1671	9423
1	1652	9424
1	1634	9425
1	1621	9426
1	1612	9427
1	1607	9428
1	1608	9429
1	1611	9430
1	1618	9431
1	1627	9432
1	1636	9433
1	1647	9434
1	1650	9435
1	1649	9436
1	1645	9437
1	1634	9438
1	1621	9439
1	1613	9460
1	1595	9461
1	1583	9462
1	1577	9463
1	1566	9464
1	1556	9465
1	1558	9466
1	1557	9467
1	1557	9468
1	1563	9469
1	1573	9470
1	1587	9471
1	1607	9472
1	1634	9473
1	1657	9474
1	1677	9475
1	1687	9476
1	1698	9477
1	1702	9478
1	1695	9479
1	1628	9500
1	1621	9501
1	1610	9502
1	1602	9503
1	1593	9504
1	1581	9505
1	1556	9506
1	1539	9507
1	1526	9508
1	1508	9509
1	1500	9510
1	1503	9511
1	1513	9512
1	1532	9513
1	1559	9514
1	1581	9515
1	1598	9516
1	1616	9517
1	1633	9518
1	1642	9519
1	1691	9480
1	1674	9481
1	1653	9482
1	1628	9483
1	1602	9484
1	1580	9485
1	1564	9486
1	1557	9487
1	1563	9488
1	1576	9489
1	1590	9490
1	1602	9491
1	1610	9492
1	1619	9493
1	1622	9494
1	1626	9495
1	1632	9496
1	1631	9497
1	1631	9498
1	1629	9499
1	1654	9520
1	1652	9521
1	1647	9522
1	1638	9523
1	1626	9524
1	1615	9525
1	1613	9526
1	1607	9527
1	1603	9528
1	1602	9529
1	1604	9530
1	1608	9531
1	1620	9532
1	1633	9533
1	1645	9534
1	1661	9535
1	1670	9536
1	1661	9537
1	1638	9538
1	1609	9539
1	1584	9540
1	1560	9541
1	1541	9542
1	1526	9543
1	1513	9544
1	1511	9545
1	1518	9546
1	1535	9547
1	1563	9548
1	1596	9549
1	1634	9550
1	1665	9551
1	1699	9552
1	1727	9553
1	1741	9554
1	1749	9555
1	1755	9556
1	1752	9557
1	1747	9558
1	1737	9559
1	1721	9560
1	1703	9561
1	1685	9562
1	1665	9563
1	1647	9564
1	1634	9565
1	1620	9566
1	1607	9567
1	1594	9568
1	1589	9569
1	1590	9570
1	1605	9571
1	1616	9572
1	1634	9573
1	1647	9574
1	1654	9575
1	1656	9576
1	1648	9577
1	1637	9578
1	1622	9579
1	1671	9600
1	1656	9601
1	1633	9602
1	1607	9603
1	1581	9604
1	1562	9605
1	1549	9606
1	1543	9607
1	1548	9608
1	1559	9609
1	1577	9610
1	1589	9611
1	1607	9612
1	1626	9613
1	1635	9614
1	1642	9615
1	1646	9616
1	1642	9617
1	1642	9618
1	1638	9619
1	1602	9580
1	1577	9581
1	1555	9582
1	1537	9583
1	1524	9584
1	1516	9585
1	1517	9586
1	1521	9587
1	1536	9588
1	1557	9589
1	1583	9590
1	1613	9591
1	1644	9592
1	1675	9593
1	1700	9594
1	1715	9595
1	1713	9596
1	1712	9597
1	1707	9598
1	1688	9599
1	1633	9620
1	1620	9621
1	1607	9622
1	1598	9623
1	1593	9624
1	1585	9625
1	1577	9626
1	1574	9627
1	1580	9628
1	1589	9629
1	1602	9630
1	1620	9631
1	1626	9632
1	1636	9633
1	1660	9634
1	1677	9635
1	1697	9636
1	1702	9637
1	1703	9638
1	1698	9639
1	1608	9660
1	1585	9661
1	1555	9662
1	1539	9663
1	1529	9664
1	1529	9665
1	1528	9666
1	1533	9667
1	1542	9668
1	1550	9669
1	1566	9670
1	1582	9671
1	1608	9672
1	1634	9673
1	1656	9674
1	1674	9675
1	1688	9676
1	1688	9677
1	1683	9678
1	1669	9679
1	1688	9640
1	1675	9641
1	1661	9642
1	1647	9643
1	1634	9644
1	1621	9645
1	1620	9646
1	1625	9647
1	1631	9648
1	1638	9649
1	1656	9650
1	1665	9651
1	1670	9652
1	1672	9653
1	1675	9654
1	1680	9655
1	1676	9656
1	1669	9657
1	1657	9658
1	1634	9659
1	1656	9680
1	1634	9681
1	1616	9682
1	1594	9683
1	1574	9684
1	1559	9685
1	1549	9686
1	1551	9687
1	1557	9688
1	1569	9689
1	1583	9690
1	1598	9691
1	1610	9692
1	1628	9693
1	1646	9694
1	1661	9695
1	1675	9696
1	1685	9697
1	1686	9698
1	1685	9699
1	1683	9700
1	1670	9701
1	1660	9702
1	1649	9703
1	1634	9704
1	1628	9705
1	1630	9706
1	1631	9707
1	1632	9708
1	1629	9709
1	1616	9710
1	1618	9711
1	1618	9712
1	1628	9713
1	1641	9714
1	1661	9715
1	1667	9716
1	1669	9717
1	1670	9718
1	1660	9719
1	1656	9720
1	1652	9721
1	1634	9722
1	1618	9723
1	1597	9724
1	1575	9725
1	1557	9726
1	1549	9727
1	1549	9728
1	1556	9729
1	1575	9730
1	1585	9731
1	1602	9732
1	1616	9733
1	1626	9734
1	1634	9735
1	1638	9736
1	1642	9737
1	1652	9738
1	1664	9739
1	1661	9760
1	1638	9761
1	1607	9762
1	1579	9763
1	1549	9764
1	1526	9765
1	1511	9766
1	1497	9767
1	1492	9768
1	1500	9769
1	1510	9770
1	1531	9771
1	1560	9772
1	1595	9773
1	1625	9774
1	1652	9775
1	1669	9776
1	1688	9777
1	1707	9778
1	1718	9779
1	1657	9740
1	1651	9741
1	1637	9742
1	1619	9743
1	1603	9744
1	1584	9745
1	1575	9746
1	1568	9747
1	1569	9748
1	1577	9749
1	1584	9750
1	1599	9751
1	1620	9752
1	1634	9753
1	1655	9754
1	1672	9755
1	1686	9756
1	1687	9757
1	1685	9758
1	1677	9759
1	1723	9780
1	1724	9781
1	1712	9782
1	1697	9783
1	1683	9784
1	1667	9785
1	1652	9786
1	1635	9787
1	1622	9788
1	1623	9789
1	1635	9790
1	1647	9791
1	1665	9792
1	1682	9793
1	1688	9794
1	1693	9795
1	1698	9796
1	1689	9797
1	1680	9798
1	1665	9799
1	1654	9800
1	1638	9801
1	1626	9802
1	1607	9803
1	1589	9804
1	1569	9805
1	1551	9806
1	1542	9807
1	1542	9808
1	1551	9809
1	1567	9810
1	1596	9811
1	1616	9812
1	1634	9813
1	1652	9814
1	1667	9815
1	1677	9816
1	1686	9817
1	1688	9818
1	1682	9819
1	1667	9820
1	1646	9821
1	1628	9822
1	1616	9823
1	1607	9824
1	1607	9825
1	1622	9826
1	1641	9827
1	1662	9828
1	1686	9829
1	1701	9830
1	1712	9831
1	1719	9832
1	1721	9833
1	1724	9834
1	1724	9835
1	1727	9836
1	1727	9837
1	1728	9838
1	1725	9839
1	1749	9860
1	1717	9861
1	1687	9862
1	1657	9863
1	1629	9864
1	1603	9865
1	1582	9866
1	1574	9867
1	1573	9868
1	1581	9869
1	1594	9870
1	1620	9871
1	1644	9872
1	1662	9873
1	1684	9874
1	1693	9875
1	1699	9876
1	1698	9877
1	1697	9878
1	1688	9879
1	1683	9880
1	1673	9881
1	1669	9882
1	1658	9883
1	1638	9884
1	1619	9885
1	1606	9886
1	1589	9887
1	1582	9888
1	1593	9889
1	1612	9890
1	1623	9891
1	1634	9892
1	1643	9893
1	1647	9894
1	1655	9895
1	1660	9896
1	1664	9897
1	1665	9898
1	1662	9899
1	1654	9900
1	1644	9901
1	1629	9902
1	1611	9903
1	1602	9904
1	1596	9905
1	1595	9906
1	1603	9907
1	1612	9908
1	1629	9909
1	1638	9910
1	1647	9911
1	1661	9912
1	1674	9913
1	1683	9914
1	1694	9915
1	1710	9916
1	1712	9917
1	1704	9918
1	1693	9919
1	1716	9840
1	1701	9841
1	1686	9842
1	1667	9843
1	1667	9844
1	1678	9845
1	1686	9846
1	1697	9847
1	1705	9848
1	1715	9849
1	1728	9850
1	1739	9851
1	1754	9852
1	1768	9853
1	1783	9854
1	1791	9855
1	1801	9856
1	1796	9857
1	1787	9858
1	1769	9859
1	1675	9920
1	1658	9921
1	1639	9922
1	1620	9923
1	1602	9924
1	1584	9925
1	1566	9926
1	1563	9927
1	1565	9928
1	1567	9929
1	1571	9930
1	1581	9931
1	1586	9932
1	1595	9933
1	1616	9934
1	1626	9935
1	1631	9936
1	1625	9937
1	1625	9938
1	1621	9939
1	1620	9940
1	1608	9941
1	1602	9942
1	1593	9943
1	1582	9944
1	1584	9945
1	1595	9946
1	1611	9947
1	1632	9948
1	1656	9949
1	1682	9950
1	1701	9951
1	1723	9952
1	1742	9953
1	1764	9954
1	1776	9955
1	1777	9956
1	1774	9957
1	1761	9958
1	1733	9959
1	1699	9960
1	1670	9961
1	1638	9962
1	1607	9963
1	1583	9964
1	1566	9965
1	1556	9966
1	1554	9967
1	1554	9968
1	1559	9969
1	1581	9970
1	1607	9971
1	1641	9972
1	1679	9973
1	1713	9974
1	1755	9975
1	1803	9976
1	1854	9977
1	1896	9978
1	1927	9979
1	1956	9980
1	1974	9981
1	1986	9982
1	1996	9983
1	2000	9984
1	2001	9985
1	1994	9986
1	1986	9987
1	1974	9988
1	1963	9989
1	1953	9990
1	1956	9991
1	1961	9992
1	1974	9993
1	1985	9994
1	1989	9995
1	1990	9996
1	1978	9997
1	1961	9998
1	1926	9999
1	1883	10000
1	1831	10001
1	1789	10002
1	1754	10003
1	1721	10004
1	1697	10005
1	1679	10006
1	1665	10007
1	1665	10008
1	1670	10009
1	1678	10010
1	1684	10011
1	1689	10012
1	1706	10013
1	1724	10014
1	1741	10015
1	1746	10016
1	1754	10017
1	1766	10018
1	1777	10019
1	1782	10020
1	1789	10021
1	1781	10022
1	1765	10023
1	1747	10024
1	1726	10025
1	1707	10026
1	1688	10027
1	1675	10028
1	1663	10029
1	1655	10030
1	1654	10031
1	1652	10032
1	1657	10033
1	1660	10034
1	1659	10035
1	1647	10036
1	1633	10037
1	1610	10038
1	1596	10039
1	1585	10040
1	1575	10041
1	1566	10042
1	1562	10043
1	1567	10044
1	1579	10045
1	1585	10046
1	1602	10047
1	1625	10048
1	1652	10049
1	1688	10050
1	1724	10051
1	1756	10052
1	1788	10053
1	1817	10054
1	1831	10055
1	1824	10056
1	1811	10057
1	1783	10058
1	1752	10059
1	1717	10060
1	1670	10061
1	1628	10062
1	1589	10063
1	1550	10064
1	1522	10065
1	1503	10066
1	1503	10067
1	1517	10068
1	1539	10069
1	1563	10070
1	1589	10071
1	1614	10072
1	1643	10073
1	1665	10074
1	1690	10075
1	1700	10076
1	1710	10077
1	1714	10078
1	1713	10079
1	1709	10080
1	1692	10081
1	1675	10082
1	1662	10083
1	1659	10084
1	1658	10085
1	1661	10086
1	1672	10087
1	1681	10088
1	1690	10089
1	1701	10090
1	1711	10091
1	1728	10092
1	1752	10093
1	1775	10094
