#Date:= 2024-10-08T16:07:58.920959
#Sampling Rate(Hz):= 1000
#Labels:= LOD	ECG	TS
1	1608	20
1	1607	21
1	1600	22
1	1591	23
1	1584	24
1	1590	25
1	1590	26
1	1594	27
1	1599	28
1	1607	29
1	1613	30
1	1625	31
1	1632	32
1	1638	33
1	1643	34
1	1647	35
1	1647	36
1	1647	37
1	2503	38
1	2496	39
1	2489	40
1	2482	41
1	2476	42
1	2471	43
1	2474	44
1	2476	45
1	2482	46
1	2471	47
1	2459	48
1	2446	49
1	2441	50
1	2432	51
1	2432	52
1	2422	53
1	2405	54
1	2384	55
1	2363	56
1	2340	57
1	2326	58
1	2319	59
1	2419	80
1	2404	81
1	2394	82
1	2389	83
1	2387	84
1	2381	85
1	2369	86
1	2367	87
1	2361	88
1	2353	89
1	2343	90
1	2335	91
1	2314	92
1	2297	93
1	2291	94
1	2309	95
1	2338	96
1	2378	97
1	2407	98
1	2419	99
1	2325	60
1	2340	61
1	2351	62
1	2368	63
1	2381	64
1	2385	65
1	2386	66
1	2393	67
1	2392	68
1	2393	69
1	2407	70
1	2429	71
1	2445	72
1	2448	73
1	2445	74
1	2444	75
1	2438	76
1	2431	77
1	2431	78
1	2430	79
1	2425	100
1	2434	101
1	2434	102
1	2431	103
1	2421	104
1	2404	105
1	2382	106
1	2356	107
1	2341	108
1	2341	109
1	2346	110
1	2362	111
1	2381	112
1	2397	113
1	2409	114
1	2408	115
1	2393	116
1	2380	117
1	2368	118
1	2359	119
1	2351	120
1	2341	121
1	2322	122
1	2314	123
1	2309	124
1	2304	125
1	2300	126
1	2302	127
1	2291	128
1	2283	129
1	2273	130
1	2269	131
1	2267	132
1	2268	133
1	2261	134
1	2244	135
1	2233	136
1	2211	137
1	2214	138
1	2222	139
1	2232	140
1	2237	141
1	2254	142
1	2258	143
1	2266	144
1	2285	145
1	2288	146
1	2313	147
1	2328	148
1	2346	149
1	2367	150
1	2371	151
1	2356	152
1	2333	153
1	2312	154
1	2287	155
1	2273	156
1	2262	157
1	2251	158
1	2236	159
1	2237	160
1	2238	161
1	2238	162
1	2238	163
1	2243	164
1	2250	165
1	2260	166
1	2255	167
1	2251	168
1	2241	169
1	2237	170
1	2234	171
1	2236	172
1	2233	173
1	2233	174
1	2233	175
1	2232	176
1	2222	177
1	2212	178
1	2209	179
1	2214	200
1	2217	201
1	2220	202
1	2214	203
1	2205	204
1	2188	205
1	2176	206
1	2170	207
1	2165	208
1	2171	209
1	2173	210
1	2171	211
1	2159	212
1	2157	213
1	2161	214
1	2168	215
1	2179	216
1	2197	217
1	2210	218
1	2217	219
1	2197	180
1	2192	181
1	2191	182
1	2197	183
1	2200	184
1	2201	185
1	2201	186
1	2206	187
1	2209	188
1	2210	189
1	2219	190
1	2222	191
1	2222	192
1	2219	193
1	2215	194
1	2212	195
1	2210	196
1	2206	197
1	2210	198
1	2212	199
1	2236	220
1	2248	221
1	2257	222
1	2263	223
1	2268	224
1	2273	225
1	2273	226
1	2264	227
1	2260	228
1	2248	229
1	2235	230
1	2212	231
1	2198	232
1	2174	233
1	2148	234
1	2125	235
1	2113	236
1	2108	237
1	2109	238
1	2118	239
1	2114	240
1	2116	241
1	2120	242
1	2127	243
1	2131	244
1	2130	245
1	2129	246
1	2121	247
1	2118	248
1	2120	249
1	2139	250
1	2157	251
1	2173	252
1	2188	253
1	2199	254
1	2201	255
1	2192	256
1	2174	257
1	2153	258
1	2129	259
1	2105	260
1	2080	261
1	2070	262
1	2054	263
1	2045	264
1	2042	265
1	2041	266
1	2041	267
1	2048	268
1	2061	269
1	2075	270
1	2084	271
1	2084	272
1	2088	273
1	2097	274
1	2102	275
1	2105	276
1	2113	277
1	2111	278
1	2124	279
1	2133	280
1	2143	281
1	2148	282
1	2145	283
1	2137	284
1	2127	285
1	2116	286
1	2100	287
1	2086	288
1	2074	289
1	2061	290
1	2055	291
1	2061	292
1	2058	293
1	2058	294
1	2063	295
1	2061	296
1	2061	297
1	2060	298
1	2057	299
1	2053	300
1	2052	301
1	2039	302
1	2036	303
1	2037	304
1	2043	305
1	2052	306
1	2061	307
1	2066	308
1	2070	309
1	2079	310
1	2087	311
1	2093	312
1	2096	313
1	2102	314
1	2101	315
1	2091	316
1	2065	317
1	2043	318
1	2019	319
1	1996	320
1	1970	321
1	1958	322
1	1947	323
1	1947	324
1	1960	325
1	1983	326
1	2008	327
1	2031	328
1	2057	329
1	2083	330
1	2108	331
1	2117	332
1	2124	333
1	2127	334
1	2123	335
1	2111	336
1	2100	337
1	2070	338
1	2042	339
1	1933	360
1	1922	361
1	1906	362
1	1897	363
1	1895	364
1	1899	365
1	1899	366
1	1908	367
1	1908	368
1	1911	369
1	1918	370
1	1922	371
1	1926	372
1	1935	373
1	1940	374
1	1940	375
1	1939	376
1	1929	377
1	1932	378
1	1940	379
1	2017	340
1	1989	341
1	1961	342
1	1935	343
1	1919	344
1	1915	345
1	1919	346
1	1926	347
1	1947	348
1	1973	349
1	2000	350
1	2018	351
1	2037	352
1	2047	353
1	2040	354
1	2034	355
1	2018	356
1	2000	357
1	1976	358
1	1953	359
1	1843	400
1	1826	401
1	1812	402
1	1799	403
1	1791	404
1	1790	405
1	1789	406
1	1777	407
1	1765	408
1	1760	409
1	1755	410
1	1757	411
1	1773	412
1	1789	413
1	1796	414
1	1801	415
1	1803	416
1	1802	417
1	1799	418
1	1796	419
1	1947	380
1	1946	381
1	1948	382
1	1936	383
1	1924	384
1	1917	385
1	1908	386
1	1899	387
1	1896	388
1	1895	389
1	1893	390
1	1887	391
1	1878	392
1	1877	393
1	1873	394
1	1869	395
1	1869	396
1	1872	397
1	1868	398
1	1856	399
1	1795	420
1	1791	421
1	1767	422
1	1746	423
1	1733	424
1	1726	425
1	1733	426
1	1751	427
1	1764	428
1	1773	429
1	1783	430
1	1802	431
1	1830	432
1	1859	433
1	1895	434
1	1932	435
1	1962	436
1	1975	437
1	1985	438
1	1979	439
1	2136	460
1	2152	461
1	2161	462
1	2172	463
1	2183	464
1	2198	465
1	2207	466
1	2198	467
1	2179	468
1	2139	469
1	2089	470
1	2032	471
1	1976	472
1	1903	473
1	1827	474
1	1746	475
1	1663	476
1	1600	477
1	1543	478
1	1510	479
1	1494	480
1	1494	481
1	1510	482
1	1537	483
1	1566	484
1	1593	485
1	1611	486
1	1629	487
1	1638	488
1	1646	489
1	1658	490
1	1669	491
1	1682	492
1	1692	493
1	1700	494
1	1705	495
1	1711	496
1	1713	497
1	1722	498
1	1734	499
1	1970	440
1	1967	441
1	1983	442
1	2001	443
1	2022	444
1	2035	445
1	2053	446
1	2061	447
1	2057	448
1	2049	449
1	2035	450
1	2026	451
1	2026	452
1	2034	453
1	2052	454
1	2071	455
1	2091	456
1	2109	457
1	2120	458
1	2122	459
1	1742	500
1	1742	501
1	1751	502
1	1750	503
1	1746	504
1	1738	505
1	1736	506
1	1729	507
1	1722	508
1	1712	509
1	1697	510
1	1682	511
1	1660	512
1	1644	513
1	1632	514
1	1620	515
1	1619	516
1	1633	517
1	1642	518
1	1652	519
1	1658	520
1	1660	521
1	1665	522
1	1674	523
1	1683	524
1	1685	525
1	1684	526
1	1674	527
1	1669	528
1	1664	529
1	1658	530
1	1647	531
1	1643	532
1	1634	533
1	1633	534
1	1629	535
1	1622	536
1	1616	537
1	1607	538
1	1600	539
1	1584	540
1	1575	541
1	1568	542
1	1562	543
1	1562	544
1	1564	545
1	1567	546
1	1574	547
1	1579	548
1	1580	549
1	1592	550
1	1598	551
1	1603	552
1	1607	553
1	1610	554
1	1619	555
1	1626	556
1	1625	557
1	1625	558
1	1629	559
1	1634	560
1	1636	561
1	1647	562
1	1649	563
1	1647	564
1	1635	565
1	1615	566
1	1590	567
1	1569	568
1	1554	569
1	1544	570
1	1544	571
1	1548	572
1	1563	573
1	1593	574
1	1623	575
1	1647	576
1	1665	577
1	1670	578
1	1669	579
1	1671	580
1	1669	581
1	1665	582
1	1663	583
1	1659	584
1	1645	585
1	1630	586
1	1607	587
1	1589	588
1	1572	589
1	1555	590
1	1539	591
1	1534	592
1	1529	593
1	1521	594
1	1521	595
1	1526	596
1	1534	597
1	1546	598
1	1560	599
1	1577	600
1	1592	601
1	1594	602
1	1593	603
1	1590	604
1	1584	605
1	1576	606
1	1564	607
1	1549	608
1	1540	609
1	1537	610
1	1546	611
1	1569	612
1	1593	613
1	1615	614
1	1631	615
1	1634	616
1	1633	617
1	1629	618
1	1621	619
1	1608	620
1	1593	621
1	1582	622
1	1572	623
1	1564	624
1	1567	625
1	1570	626
1	1570	627
1	1565	628
1	1555	629
1	1539	630
1	1523	631
1	1502	632
1	1490	633
1	1492	634
1	1500	635
1	1512	636
1	1542	637
1	1569	638
1	1593	639
1	1615	640
1	1636	641
1	1647	642
1	1656	643
1	1656	644
1	1647	645
1	1634	646
1	1622	647
1	1616	648
1	1608	649
1	1603	650
1	1598	651
1	1595	652
1	1592	653
1	1584	654
1	1581	655
1	1574	656
1	1564	657
1	1551	658
1	1539	659
1	1587	680
1	1597	681
1	1618	682
1	1633	683
1	1638	684
1	1636	685
1	1634	686
1	1633	687
1	1626	688
1	1616	689
1	1603	690
1	1591	691
1	1582	692
1	1581	693
1	1579	694
1	1573	695
1	1559	696
1	1556	697
1	1542	698
1	1530	699
1	1533	660
1	1531	661
1	1529	662
1	1536	663
1	1551	664
1	1568	665
1	1582	666
1	1594	667
1	1597	668
1	1607	669
1	1613	670
1	1621	671
1	1624	672
1	1620	673
1	1616	674
1	1609	675
1	1606	676
1	1593	677
1	1585	678
1	1583	679
1	1526	700
1	1524	701
1	1527	702
1	1530	703
1	1538	704
1	1544	705
1	1548	706
1	1547	707
1	1544	708
1	1542	709
1	1548	710
1	1557	711
1	1573	712
1	1584	713
1	1587	714
1	1589	715
1	1589	716
1	1584	717
1	1581	718
1	1575	719
1	1564	720
1	1547	721
1	1525	722
1	1499	723
1	1476	724
1	1459	725
1	1443	726
1	1433	727
1	1424	728
1	1424	729
1	1437	730
1	1466	731
1	1502	732
1	1534	733
1	1555	734
1	1572	735
1	1580	736
1	1572	737
1	1564	738
1	1556	739
1	1547	740
1	1537	741
1	1529	742
1	1503	743
1	1495	744
1	1483	745
1	1482	746
1	1481	747
1	1476	748
1	1463	749
1	1450	750
1	1436	751
1	1423	752
1	1422	753
1	1425	754
1	1436	755
1	1445	756
1	1450	757
1	1449	758
1	1446	759
1	1394	780
1	1397	781
1	1400	782
1	1409	783
1	1419	784
1	1425	785
1	1433	786
1	1441	787
1	1449	788
1	1454	789
1	1467	790
1	1476	791
1	1477	792
1	1476	793
1	1472	794
1	1458	795
1	1445	796
1	1433	797
1	1428	798
1	1430	799
1	1446	760
1	1443	761
1	1442	762
1	1448	763
1	1454	764
1	1462	765
1	1464	766
1	1453	767
1	1443	768
1	1436	769
1	1431	770
1	1434	771
1	1437	772
1	1437	773
1	1431	774
1	1421	775
1	1409	776
1	1398	777
1	1392	778
1	1397	779
1	1433	800
1	1436	801
1	1445	802
1	1451	803
1	1465	804
1	1482	805
1	1494	806
1	1494	807
1	1488	808
1	1481	809
1	1476	810
1	1475	811
1	1462	812
1	1454	813
1	1450	814
1	1451	815
1	1453	816
1	1463	817
1	1467	818
1	1467	819
1	1467	820
1	1464	821
1	1459	822
1	1456	823
1	1456	824
1	1464	825
1	1475	826
1	1476	827
1	1479	828
1	1492	829
1	1503	830
1	1508	831
1	1507	832
1	1500	833
1	1494	834
1	1491	835
1	1484	836
1	1479	837
1	1480	838
1	1481	839
1	1469	840
1	1454	841
1	1437	842
1	1422	843
1	1410	844
1	1407	845
1	1417	846
1	1433	847
1	1443	848
1	1450	849
1	1463	850
1	1463	851
1	1462	852
1	1464	853
1	1467	854
1	1466	855
1	1465	856
1	1464	857
1	1474	858
1	1485	859
1	1500	860
1	1512	861
1	1529	862
1	1530	863
1	1523	864
1	1512	865
1	1502	866
1	1492	867
1	1480	868
1	1467	869
1	1451	870
1	1446	871
1	1438	872
1	1441	873
1	1448	874
1	1454	875
1	1464	876
1	1476	877
1	1479	878
1	1485	879
1	1490	880
1	1488	881
1	1482	882
1	1472	883
1	1458	884
1	1450	885
1	1448	886
1	1443	887
1	1448	888
1	1452	889
1	1458	890
1	1467	891
1	1481	892
1	1490	893
1	1492	894
1	1490	895
1	1485	896
1	1477	897
1	1470	898
1	1458	899
1	1448	900
1	1439	901
1	1435	902
1	1437	903
1	1448	904
1	1455	905
1	1461	906
1	1474	907
1	1472	908
1	1472	909
1	1476	910
1	1482	911
1	1494	912
1	1503	913
1	1515	914
1	1524	915
1	1530	916
1	1528	917
1	1527	918
1	1524	919
1	1514	920
1	1503	921
1	1491	922
1	1472	923
1	1450	924
1	1435	925
1	1422	926
1	1410	927
1	1406	928
1	1411	929
1	1418	930
1	1424	931
1	1422	932
1	1427	933
1	1437	934
1	1453	935
1	1475	936
1	1496	937
1	1513	938
1	1528	939
1	1419	960
1	1413	961
1	1407	962
1	1405	963
1	1406	964
1	1413	965
1	1424	966
1	1443	967
1	1458	968
1	1476	969
1	1489	970
1	1506	971
1	1525	972
1	1542	973
1	1559	974
1	1574	975
1	1580	976
1	1573	977
1	1573	978
1	1572	979
1	1542	940
1	1555	941
1	1557	942
1	1559	943
1	1553	944
1	1541	945
1	1530	946
1	1521	947
1	1515	948
1	1507	949
1	1498	950
1	1482	951
1	1476	952
1	1465	953
1	1460	954
1	1454	955
1	1454	956
1	1448	957
1	1439	958
1	1427	959
1	1567	980
1	1555	981
1	1546	982
1	1526	983
1	1503	984
1	1488	985
1	1476	986
1	1468	987
1	1467	988
1	1476	989
1	1490	990
1	1503	991
1	1503	992
1	1505	993
1	1504	994
1	1503	995
1	1506	996
1	1517	997
1	1518	998
1	1517	999
1	1515	1000
1	1505	1001
1	1499	1002
1	1494	1003
1	1485	1004
1	1476	1005
1	1462	1006
1	1447	1007
1	1445	1008
1	1450	1009
1	1469	1010
1	1489	1011
1	1511	1012
1	1517	1013
1	1522	1014
1	1523	1015
1	1527	1016
1	1529	1017
1	1535	1018
1	1542	1019
1	1550	1020
1	1557	1021
1	1564	1022
1	1571	1023
1	1581	1024
1	1584	1025
1	1584	1026
1	1590	1027
1	1582	1028
1	1574	1029
1	1561	1030
1	1555	1031
1	1555	1032
1	1559	1033
1	1566	1034
1	1575	1035
1	1579	1036
1	1571	1037
1	1563	1038
1	1550	1039
1	1539	1040
1	1534	1041
1	1540	1042
1	1543	1043
1	1547	1044
1	1552	1045
1	1539	1046
1	1530	1047
1	1531	1048
1	1533	1049
1	1531	1050
1	1529	1051
1	1529	1052
1	1530	1053
1	1541	1054
1	1546	1055
1	1553	1056
1	1554	1057
1	1555	1058
1	1555	1059
1	1563	1060
1	1567	1061
1	1571	1062
1	1581	1063
1	1587	1064
1	1598	1065
1	1608	1066
1	1612	1067
1	1611	1068
1	1602	1069
1	1589	1070
1	1580	1071
1	1577	1072
1	1573	1073
1	1568	1074
1	1557	1075
1	1552	1076
1	1547	1077
1	1547	1078
1	1544	1079
1	1540	1080
1	1536	1081
1	1529	1082
1	1528	1083
1	1521	1084
1	1515	1085
1	1503	1086
1	1503	1087
1	1508	1088
1	1521	1089
1	1542	1090
1	1566	1091
1	1583	1092
1	1602	1093
1	1620	1094
1	1638	1095
1	1654	1096
1	1657	1097
1	1659	1098
1	1657	1099
1	1654	1100
1	1644	1101
1	1638	1102
1	1629	1103
1	1621	1104
1	1620	1105
1	1616	1106
1	1613	1107
1	1616	1108
1	1620	1109
1	1620	1110
1	1611	1111
1	1598	1112
1	1590	1113
1	1589	1114
1	1590	1115
1	1596	1116
1	1608	1117
1	1618	1118
1	1621	1119
1	1564	1140
1	1562	1141
1	1567	1142
1	1568	1143
1	1571	1144
1	1574	1145
1	1579	1146
1	1589	1147
1	1602	1148
1	1618	1149
1	1625	1150
1	1634	1151
1	1638	1152
1	1646	1153
1	1649	1154
1	1650	1155
1	1645	1156
1	1631	1157
1	1620	1158
1	1607	1159
1	1623	1120
1	1623	1121
1	1616	1122
1	1607	1123
1	1597	1124
1	1582	1125
1	1573	1126
1	1566	1127
1	1569	1128
1	1576	1129
1	1580	1130
1	1581	1131
1	1587	1132
1	1593	1133
1	1597	1134
1	1602	1135
1	1604	1136
1	1598	1137
1	1592	1138
1	1580	1139
1	1598	1160
1	1589	1161
1	1585	1162
1	1590	1163
1	1598	1164
1	1609	1165
1	1623	1166
1	1634	1167
1	1644	1168
1	1647	1169
1	1644	1170
1	1636	1171
1	1621	1172
1	1613	1173
1	1607	1174
1	1602	1175
1	1597	1176
1	1605	1177
1	1605	1178
1	1600	1179
1	1599	1180
1	1607	1181
1	1625	1182
1	1643	1183
1	1660	1184
1	1664	1185
1	1664	1186
1	1659	1187
1	1652	1188
1	1647	1189
1	1643	1190
1	1641	1191
1	1647	1192
1	1647	1193
1	1647	1194
1	1647	1195
1	1643	1196
1	1639	1197
1	1638	1198
1	1641	1199
1	1643	1200
1	1643	1201
1	1638	1202
1	1638	1203
1	1643	1204
1	1647	1205
1	1652	1206
1	1662	1207
1	1667	1208
1	1669	1209
1	1667	1210
1	1665	1211
1	1664	1212
1	1662	1213
1	1660	1214
1	1657	1215
1	1656	1216
1	1648	1217
1	1649	1218
1	1648	1219
1	1647	1220
1	1647	1221
1	1660	1222
1	1665	1223
1	1682	1224
1	1697	1225
1	1714	1226
1	1734	1227
1	1753	1228
1	1770	1229
1	1778	1230
1	1775	1231
1	1754	1232
1	1738	1233
1	1724	1234
1	1711	1235
1	1701	1236
1	1695	1237
1	1686	1238
1	1682	1239
1	1675	1240
1	1669	1241
1	1660	1242
1	1660	1243
1	1663	1244
1	1673	1245
1	1684	1246
1	1688	1247
1	1699	1248
1	1710	1249
1	1713	1250
1	1721	1251
1	1726	1252
1	1724	1253
1	1717	1254
1	1711	1255
1	1712	1256
1	1705	1257
1	1697	1258
1	1685	1259
1	1670	1260
1	1659	1261
1	1638	1262
1	1625	1263
1	1620	1264
1	1616	1265
1	1619	1266
1	1633	1267
1	1639	1268
1	1655	1269
1	1674	1270
1	1688	1271
1	1699	1272
1	1701	1273
1	1697	1274
1	1690	1275
1	1683	1276
1	1667	1277
1	1656	1278
1	1642	1279
1	1634	1280
1	1631	1281
1	1631	1282
1	1627	1283
1	1625	1284
1	1634	1285
1	1643	1286
1	1657	1287
1	1670	1288
1	1680	1289
1	1679	1290
1	1675	1291
1	1665	1292
1	1665	1293
1	1665	1294
1	1669	1295
1	1678	1296
1	1690	1297
1	1691	1298
1	1690	1299
1	1688	1300
1	1688	1301
1	1693	1302
1	1700	1303
1	1712	1304
1	1720	1305
1	1727	1306
1	1724	1307
1	1719	1308
1	1712	1309
1	1705	1310
1	1695	1311
1	1686	1312
1	1669	1313
1	1646	1314
1	1622	1315
1	1603	1316
1	1590	1317
1	1581	1318
1	1580	1319
1	1584	1320
1	1596	1321
1	1608	1322
1	1626	1323
1	1638	1324
1	1651	1325
1	1662	1326
1	1680	1327
1	1684	1328
1	1686	1329
1	1692	1330
1	1696	1331
1	1697	1332
1	1699	1333
1	1703	1334
1	1707	1335
1	1707	1336
1	1697	1337
1	1690	1338
1	1689	1339
1	1688	1340
1	1688	1341
1	1691	1342
1	1688	1343
1	1694	1344
1	1707	1345
1	1713	1346
1	1738	1347
1	1764	1348
1	1791	1349
1	1818	1350
1	1843	1351
1	1870	1352
1	1899	1353
1	1929	1354
1	1956	1355
1	1976	1356
1	1988	1357
1	1991	1358
1	1988	1359
1	1988	1360
1	1985	1361
1	1985	1362
1	1985	1363
1	1988	1364
1	2003	1365
1	2029	1366
1	2052	1367
1	2084	1368
1	2117	1369
1	2139	1370
1	2157	1371
1	2179	1372
1	2192	1373
1	2206	1374
1	2215	1375
1	2217	1376
1	2207	1377
1	2183	1378
1	2150	1379
1	2105	1380
1	2061	1381
1	2001	1382
1	1948	1383
1	1895	1384
1	1837	1385
1	1775	1386
1	1724	1387
1	1670	1388
1	1630	1389
1	1598	1390
1	1581	1391
1	1579	1392
1	1581	1393
1	1589	1394
1	1594	1395
1	1602	1396
1	1607	1397
1	1620	1398
1	1636	1399
1	1649	1400
1	1659	1401
1	1662	1402
1	1665	1403
1	1670	1404
1	1674	1405
1	1677	1406
1	1673	1407
1	1666	1408
1	1667	1409
1	1674	1410
1	1678	1411
1	1672	1412
1	1670	1413
1	1675	1414
1	1684	1415
1	1686	1416
1	1691	1417
1	1691	1418
1	1686	1419
1	1683	1420
1	1678	1421
1	1667	1422
1	1659	1423
1	1647	1424
1	1639	1425
1	1633	1426
1	1620	1427
1	1618	1428
1	1621	1429
1	1631	1430
1	1639	1431
1	1659	1432
1	1668	1433
1	1678	1434
1	1683	1435
1	1685	1436
1	1686	1437
1	1688	1438
1	1686	1439
1	1722	1480
1	1714	1481
1	1713	1482
1	1718	1483
1	1724	1484
1	1733	1485
1	1738	1486
1	1738	1487
1	1744	1488
1	1748	1489
1	1743	1490
1	1738	1491
1	1730	1492
1	1724	1493
1	1718	1494
1	1715	1495
1	1712	1496
1	1704	1497
1	1700	1498
1	1697	1499
1	1691	1440
1	1697	1441
1	1701	1442
1	1703	1443
1	1703	1444
1	1703	1445
1	1702	1446
1	1703	1447
1	1710	1448
1	1718	1449
1	1730	1450
1	1747	1451
1	1751	1452
1	1742	1453
1	1731	1454
1	1713	1455
1	1701	1456
1	1690	1457
1	1688	1458
1	1695	1459
1	1702	1460
1	1710	1461
1	1721	1462
1	1723	1463
1	1726	1464
1	1736	1465
1	1741	1466
1	1746	1467
1	1751	1468
1	1760	1469
1	1769	1470
1	1775	1471
1	1769	1472
1	1766	1473
1	1764	1474
1	1757	1475
1	1746	1476
1	1743	1477
1	1738	1478
1	1730	1479
1	1700	1500
1	1713	1501
1	1721	1502
1	1735	1503
1	1746	1504
1	1757	1505
1	1765	1506
1	1782	1507
1	1792	1508
1	1796	1509
1	1803	1510
1	1812	1511
1	1814	1512
1	1813	1513
1	1812	1514
1	1812	1515
1	1814	1516
1	1813	1517
1	1817	1518
1	1816	1519
1	1796	1520
1	1793	1521
1	1782	1522
1	1774	1523
1	1771	1524
1	1773	1525
1	1776	1526
1	1780	1527
1	1783	1528
1	1787	1529
1	1791	1530
1	1791	1531
1	1782	1532
1	1775	1533
1	1767	1534
1	1769	1535
1	1775	1536
1	1790	1537
1	1793	1538
1	1795	1539
1	1807	1540
1	1811	1541
1	1803	1542
1	1809	1543
1	1812	1544
1	1814	1545
1	1817	1546
1	1816	1547
1	1814	1548
1	1814	1549
1	1812	1550
1	1808	1551
1	1802	1552
1	1791	1553
1	1780	1554
1	1769	1555
1	1766	1556
1	1769	1557
1	1779	1558
1	1796	1559
1	1823	1560
1	1845	1561
1	1860	1562
1	1871	1563
1	1877	1564
1	1870	1565
1	1865	1566
1	1865	1567
1	1864	1568
1	1866	1569
1	1868	1570
1	1869	1571
1	1869	1572
1	1871	1573
1	1877	1574
1	1881	1575
1	1883	1576
1	1873	1577
1	1862	1578
1	1851	1579
1	1834	1580
1	1817	1581
1	1813	1582
1	1798	1583
1	1787	1584
1	1765	1585
1	1751	1586
1	1742	1587
1	1744	1588
1	1750	1589
1	1757	1590
1	1765	1591
1	1767	1592
1	1780	1593
1	1795	1594
1	1814	1595
1	1826	1596
1	1841	1597
1	1843	1598
1	1844	1599
1	1843	1600
1	1837	1601
1	1837	1602
1	1832	1603
1	1825	1604
1	1808	1605
1	1778	1606
1	1751	1607
1	1738	1608
1	1737	1609
1	1743	1610
1	1751	1611
1	1764	1612
1	1773	1613
1	1789	1614
1	1811	1615
1	1827	1616
1	1837	1617
1	1841	1618
1	1838	1619
1	1834	1620
1	1835	1621
1	1830	1622
1	1838	1623
1	1847	1624
1	1855	1625
1	1856	1626
1	1858	1627
1	1854	1628
1	1852	1629
1	1857	1630
1	1861	1631
1	1864	1632
1	1865	1633
1	1860	1634
1	1861	1635
1	1858	1636
1	1851	1637
1	1847	1638
1	1841	1639
1	1835	1640
1	1826	1641
1	1821	1642
1	1803	1643
1	1782	1644
1	1764	1645
1	1738	1646
1	1715	1647
1	1700	1648
1	1693	1649
1	1695	1650
1	1698	1651
1	1702	1652
1	1712	1653
1	1724	1654
1	1733	1655
1	1738	1656
1	1744	1657
1	1746	1658
1	1752	1659
1	1751	1660
1	1751	1661
1	1742	1662
1	1731	1663
1	1715	1664
1	1703	1665
1	1698	1666
1	1694	1667
1	1700	1668
1	1710	1669
1	1715	1670
1	1723	1671
1	1733	1672
1	1737	1673
1	1736	1674
1	1730	1675
1	1722	1676
1	1712	1677
1	1697	1678
1	1683	1679
1	1673	1680
1	1664	1681
1	1659	1682
1	1661	1683
1	1673	1684
1	1679	1685
1	1691	1686
1	1712	1687
1	1725	1688
1	1731	1689
1	1728	1690
1	1723	1691
1	1713	1692
1	1705	1693
1	1696	1694
1	1686	1695
1	1679	1696
1	1660	1697
1	1647	1698
1	1635	1699
1	1633	1700
1	1633	1701
1	1643	1702
1	1649	1703
1	1655	1704
1	1660	1705
1	1665	1706
1	1674	1707
1	1681	1708
1	1686	1709
1	1690	1710
1	1693	1711
1	1688	1712
1	1687	1713
1	1687	1714
1	1683	1715
1	1674	1716
1	1669	1717
1	1660	1718
1	1655	1719
1	1652	1720
1	1656	1721
1	1661	1722
1	1669	1723
1	1674	1724
1	1683	1725
1	1691	1726
1	1693	1727
1	1699	1728
1	1705	1729
1	1721	1730
1	1738	1731
1	1757	1732
1	1763	1733
1	1764	1734
1	1759	1735
1	1754	1736
1	1746	1737
1	1727	1738
1	1701	1739
1	1726	1760
1	1728	1761
1	1736	1762
1	1736	1763
1	1736	1764
1	1739	1765
1	1747	1766
1	1752	1767
1	1759	1768
1	1762	1769
1	1764	1770
1	1767	1771
1	1764	1772
1	1765	1773
1	1769	1774
1	1765	1775
1	1760	1776
1	1754	1777
1	1738	1778
1	1721	1779
1	1665	1740
1	1644	1741
1	1634	1742
1	1634	1743
1	1636	1744
1	1646	1745
1	1651	1746
1	1659	1747
1	1660	1748
1	1661	1749
1	1660	1750
1	1660	1751
1	1656	1752
1	1656	1753
1	1659	1754
1	1663	1755
1	1678	1756
1	1687	1757
1	1707	1758
1	1718	1759
1	1698	1780
1	1680	1781
1	1660	1782
1	1652	1783
1	1652	1784
1	1654	1785
1	1659	1786
1	1660	1787
1	1674	1788
1	1690	1789
1	1699	1790
1	1700	1791
1	1708	1792
1	1704	1793
1	1701	1794
1	1699	1795
1	1697	1796
1	1703	1797
1	1710	1798
1	1721	1799
1	1738	1800
1	1749	1801
1	1755	1802
1	1764	1803
1	1769	1804
1	1770	1805
1	1775	1806
1	1786	1807
1	1786	1808
1	1782	1809
1	1781	1810
1	1780	1811
1	1773	1812
1	1764	1813
1	1751	1814
1	1739	1815
1	1733	1816
1	1718	1817
1	1710	1818
1	1698	1819
1	1686	1820
1	1673	1821
1	1667	1822
1	1664	1823
1	1665	1824
1	1671	1825
1	1677	1826
1	1686	1827
1	1698	1828
1	1711	1829
1	1728	1830
1	1749	1831
1	1761	1832
1	1777	1833
1	1791	1834
1	1793	1835
1	1791	1836
1	1788	1837
1	1772	1838
1	1752	1839
1	1746	1840
1	1738	1841
1	1723	1842
1	1713	1843
1	1712	1844
1	1715	1845
1	1724	1846
1	1729	1847
1	1731	1848
1	1730	1849
1	1736	1850
1	1738	1851
1	1747	1852
1	1749	1853
1	1751	1854
1	1751	1855
1	1752	1856
1	1749	1857
1	1750	1858
1	1754	1859
1	1762	1860
1	1764	1861
1	1759	1862
1	1753	1863
1	1744	1864
1	1733	1865
1	1717	1866
1	1707	1867
1	1686	1868
1	1659	1869
1	1634	1870
1	1622	1871
1	1621	1872
1	1631	1873
1	1645	1874
1	1664	1875
1	1690	1876
1	1711	1877
1	1735	1878
1	1752	1879
1	1769	1880
1	1785	1881
1	1801	1882
1	1817	1883
1	1818	1884
1	1817	1885
1	1816	1886
1	1815	1887
1	1811	1888
1	1800	1889
1	1791	1890
1	1782	1891
1	1766	1892
1	1752	1893
1	1737	1894
1	1713	1895
1	1689	1896
1	1674	1897
1	1658	1898
1	1648	1899
1	1650	1900
1	1660	1901
1	1682	1902
1	1701	1903
1	1726	1904
1	1754	1905
1	1788	1906
1	1818	1907
1	1855	1908
1	1885	1909
1	1913	1910
1	1935	1911
1	1953	1912
1	1948	1913
1	1917	1914
1	1875	1915
1	1834	1916
1	1792	1917
1	1765	1918
1	1744	1919
1	1764	1940
1	1775	1941
1	1798	1942
1	1817	1943
1	1819	1944
1	1828	1945
1	1814	1946
1	1800	1947
1	1791	1948
1	1786	1949
1	1775	1950
1	1764	1951
1	1752	1952
1	1738	1953
1	1720	1954
1	1706	1955
1	1694	1956
1	1688	1957
1	1687	1958
1	1692	1959
1	1710	1960
1	1722	1961
1	1736	1962
1	1749	1963
1	1763	1964
1	1768	1965
1	1775	1966
1	1773	1967
1	1770	1968
1	1764	1969
1	1760	1970
1	1753	1971
1	1751	1972
1	1738	1973
1	1734	1974
1	1729	1975
1	1729	1976
1	1734	1977
1	1740	1978
1	1751	1979
1	1723	1920
1	1701	1921
1	1674	1922
1	1656	1923
1	1637	1924
1	1631	1925
1	1623	1926
1	1625	1927
1	1623	1928
1	1625	1929
1	1630	1930
1	1639	1931
1	1660	1932
1	1683	1933
1	1710	1934
1	1730	1935
1	1747	1936
1	1751	1937
1	1757	1938
1	1761	1939
1	1718	2000
1	1731	2001
1	1746	2002
1	1752	2003
1	1764	2004
1	1770	2005
1	1778	2006
1	1791	2007
1	1803	2008
1	1814	2009
1	1816	2010
1	1815	2011
1	1796	2012
1	1791	2013
1	1788	2014
1	1787	2015
1	1791	2016
1	1803	2017
1	1802	2018
1	1796	2019
1	1764	1980
1	1777	1981
1	1780	1982
1	1790	1983
1	1796	1984
1	1802	1985
1	1815	1986
1	1821	1987
1	1816	1988
1	1791	1989
1	1766	1990
1	1744	1991
1	1724	1992
1	1704	1993
1	1695	1994
1	1694	1995
1	1699	1996
1	1700	1997
1	1706	1998
1	1710	1999
1	1787	2020
1	1775	2021
1	1764	2022
1	1754	2023
1	1751	2024
1	1748	2025
1	1752	2026
1	1750	2027
1	1751	2028
1	1743	2029
1	1735	2030
1	1726	2031
1	1729	2032
1	1728	2033
1	1729	2034
1	1738	2035
1	1755	2036
1	1777	2037
1	1793	2038
1	1795	2039
1	1800	2040
1	1796	2041
1	1794	2042
1	1788	2043
1	1782	2044
1	1774	2045
1	1765	2046
1	1765	2047
1	1765	2048
1	1773	2049
1	1782	2050
1	1798	2051
1	1813	2052
1	1822	2053
1	1828	2054
1	1832	2055
1	1832	2056
1	1819	2057
1	1817	2058
1	1814	2059
1	1814	2060
1	1817	2061
1	1822	2062
1	1826	2063
1	1827	2064
1	1827	2065
1	1827	2066
1	1816	2067
1	1787	2068
1	1754	2069
1	1716	2070
1	1691	2071
1	1661	2072
1	1639	2073
1	1629	2074
1	1625	2075
1	1633	2076
1	1652	2077
1	1672	2078
1	1700	2079
1	1733	2080
1	1765	2081
1	1798	2082
1	1824	2083
1	1841	2084
1	1850	2085
1	1854	2086
1	1845	2087
1	1837	2088
1	1823	2089
1	1812	2090
1	1796	2091
1	1800	2092
1	1795	2093
1	1791	2094
1	1791	2095
1	1791	2096
1	1787	2097
1	1780	2098
1	1777	2099
1	1781	2100
1	1791	2101
1	1809	2102
1	1827	2103
1	1843	2104
1	1849	2105
1	1848	2106
1	1847	2107
1	1842	2108
1	1832	2109
1	1820	2110
1	1812	2111
1	1796	2112
1	1795	2113
1	1794	2114
1	1809	2115
1	1823	2116
1	1833	2117
1	1843	2118
1	1846	2119
1	1847	2120
1	1842	2121
1	1839	2122
1	1824	2123
1	1818	2124
1	1812	2125
1	1800	2126
1	1791	2127
1	1788	2128
1	1787	2129
1	1787	2130
1	1795	2131
1	1796	2132
1	1811	2133
1	1819	2134
1	1832	2135
1	1845	2136
1	1865	2137
1	1882	2138
1	1888	2139
1	1849	2160
1	1838	2161
1	1827	2162
1	1834	2163
1	1850	2164
1	1863	2165
1	1869	2166
1	1876	2167
1	1873	2168
1	1874	2169
1	1877	2170
1	1873	2171
1	1865	2172
1	1854	2173
1	1843	2174
1	1826	2175
1	1809	2176
1	1782	2177
1	1764	2178
1	1755	2179
1	1856	2200
1	1843	2201
1	1828	2202
1	1817	2203
1	1813	2204
1	1812	2205
1	1817	2206
1	1811	2207
1	1809	2208
1	1801	2209
1	1796	2210
1	1791	2211
1	1785	2212
1	1777	2213
1	1777	2214
1	1778	2215
1	1778	2216
1	1786	2217
1	1790	2218
1	1793	2219
1	1751	2180
1	1746	2181
1	1743	2182
1	1737	2183
1	1733	2184
1	1733	2185
1	1738	2186
1	1746	2187
1	1760	2188
1	1777	2189
1	1796	2190
1	1819	2191
1	1835	2192
1	1852	2193
1	1865	2194
1	1874	2195
1	1879	2196
1	1883	2197
1	1877	2198
1	1868	2199
1	1901	2140
1	1906	2141
1	1900	2142
1	1897	2143
1	1893	2144
1	1881	2145
1	1870	2146
1	1863	2147
1	1856	2148
1	1845	2149
1	1834	2150
1	1830	2151
1	1837	2152
1	1843	2153
1	1856	2154
1	1868	2155
1	1881	2156
1	1882	2157
1	1873	2158
1	1863	2159
1	1809	2220
1	1821	2221
1	1828	2222
1	1837	2223
1	1841	2224
1	1841	2225
1	1841	2226
1	1837	2227
1	1830	2228
1	1830	2229
1	1827	2230
1	1826	2231
1	1825	2232
1	1827	2233
1	1827	2234
1	1821	2235
1	1818	2236
1	1808	2237
1	1801	2238
1	1803	2239
1	1811	2240
1	1819	2241
1	1841	2242
1	1855	2243
1	1860	2244
1	1877	2245
1	1881	2246
1	1881	2247
1	1882	2248
1	1880	2249
1	1870	2250
1	1868	2251
1	1862	2252
1	1860	2253
1	1860	2254
1	1856	2255
1	1856	2256
1	1857	2257
1	1854	2258
1	1854	2259
1	1874	2260
1	1895	2261
1	1922	2262
1	1963	2263
1	2009	2264
1	2061	2265
1	2111	2266
1	2154	2267
1	2188	2268
1	2230	2269
1	2262	2270
1	2286	2271
1	2307	2272
1	2316	2273
1	2319	2274
1	2327	2275
1	2336	2276
1	2341	2277
1	2348	2278
1	2354	2279
1	2354	2280
1	2363	2281
1	2367	2282
1	2382	2283
1	2400	2284
1	2419	2285
1	2431	2286
1	2438	2287
1	2426	2288
1	2403	2289
1	2368	2290
1	2322	2291
1	2263	2292
1	2192	2293
1	2125	2294
1	2055	2295
1	1986	2296
1	1909	2297
1	1844	2298
1	1790	2299
1	1755	2300
1	1731	2301
1	1719	2302
1	1710	2303
1	1705	2304
1	1712	2305
1	1726	2306
1	1739	2307
1	1762	2308
1	1791	2309
1	1832	2310
1	1861	2311
1	1880	2312
1	1895	2313
1	1905	2314
1	1907	2315
1	1907	2316
1	1908	2317
1	1904	2318
1	1899	2319
1	1893	2320
1	1882	2321
1	1869	2322
1	1861	2323
1	1861	2324
1	1865	2325
1	1869	2326
1	1865	2327
1	1862	2328
1	1855	2329
1	1844	2330
1	1834	2331
1	1832	2332
1	1832	2333
1	1830	2334
1	1827	2335
1	1827	2336
1	1824	2337
1	1818	2338
1	1812	2339
1	1812	2340
1	1815	2341
1	1818	2342
1	1820	2343
1	1824	2344
1	1824	2345
1	1824	2346
1	1832	2347
1	1836	2348
1	1843	2349
1	1854	2350
1	1861	2351
1	1857	2352
1	1849	2353
1	1843	2354
1	1837	2355
1	1836	2356
1	1827	2357
1	1823	2358
1	1819	2359
1	1819	2360
1	1823	2361
1	1831	2362
1	1836	2363
1	1841	2364
1	1844	2365
1	1854	2366
1	1864	2367
1	1873	2368
1	1878	2369
1	1878	2370
1	1874	2371
1	1864	2372
1	1849	2373
1	1834	2374
1	1819	2375
1	1803	2376
1	1800	2377
1	1800	2378
1	1808	2379
1	1816	2380
1	1818	2381
1	1824	2382
1	1834	2383
1	1843	2384
1	1849	2385
1	1856	2386
1	1856	2387
1	1861	2388
1	1869	2389
1	1873	2390
1	1881	2391
1	1895	2392
1	1899	2393
1	1906	2394
1	1908	2395
1	1909	2396
1	1913	2397
1	1919	2398
1	1922	2399
1	1926	2400
1	1931	2401
1	1922	2402
1	1908	2403
1	1906	2404
1	1908	2405
1	1910	2406
1	1924	2407
1	1927	2408
1	1923	2409
1	1912	2410
1	1899	2411
1	1888	2412
1	1875	2413
1	1860	2414
1	1844	2415
1	1831	2416
1	1808	2417
1	1794	2418
1	1791	2419
1	1787	2420
1	1786	2421
1	1791	2422
1	1796	2423
1	1817	2424
1	1836	2425
1	1857	2426
1	1881	2427
1	1899	2428
1	1913	2429
1	1924	2430
1	1932	2431
1	1924	2432
1	1922	2433
1	1913	2434
1	1904	2435
1	1903	2436
1	1906	2437
1	1898	2438
1	1884	2439
1	1874	2440
1	1860	2441
1	1842	2442
1	1832	2443
1	1832	2444
1	1837	2445
1	1849	2446
1	1869	2447
1	1895	2448
1	1919	2449
1	1936	2450
1	1949	2451
1	1953	2452
1	1949	2453
1	1944	2454
1	1946	2455
1	1937	2456
1	1929	2457
1	1922	2458
1	1916	2459
1	1914	2460
1	1922	2461
1	1929	2462
1	1945	2463
1	1956	2464
1	1967	2465
1	1966	2466
1	1968	2467
1	1958	2468
1	1948	2469
1	1936	2470
1	1926	2471
1	1919	2472
1	1913	2473
1	1909	2474
1	1907	2475
1	1899	2476
1	1890	2477
1	1888	2478
1	1893	2479
1	1897	2480
1	1906	2481
1	1917	2482
1	1922	2483
1	1930	2484
1	1948	2485
1	1968	2486
1	1981	2487
1	1991	2488
1	1991	2489
1	1990	2490
1	1995	2491
1	1995	2492
1	2000	2493
1	2004	2494
1	2005	2495
1	2000	2496
1	1999	2497
1	1995	2498
1	1982	2499
1	1973	2500
1	1958	2501
1	1947	2502
1	1935	2503
1	1927	2504
1	1923	2505
1	1923	2506
1	1924	2507
1	1930	2508
1	1926	2509
1	1922	2510
1	1916	2511
1	1919	2512
1	1921	2513
1	1922	2514
1	1936	2515
1	1949	2516
1	1959	2517
1	1962	2518
1	1967	2519
1	1974	2520
1	1974	2521
1	1964	2522
1	1956	2523
1	1949	2524
1	1948	2525
1	1951	2526
1	1968	2527
1	1976	2528
1	1983	2529
1	1984	2530
1	1977	2531
1	1965	2532
1	1953	2533
1	1945	2534
1	1940	2535
1	1935	2536
1	1926	2537
1	1926	2538
1	1926	2539
1	1929	2540
1	1933	2541
1	1944	2542
1	1947	2543
1	1940	2544
1	1940	2545
1	1926	2546
1	1917	2547
1	1908	2548
1	1904	2549
1	1908	2550
1	1914	2551
1	1909	2552
1	1897	2553
1	1894	2554
1	1895	2555
1	1907	2556
1	1919	2557
1	1913	2558
1	1916	2559
1	1913	2560
1	1908	2561
1	1895	2562
1	1879	2563
1	1862	2564
1	1854	2565
1	1841	2566
1	1817	2567
1	1791	2568
1	1767	2569
1	1750	2570
1	1734	2571
1	1726	2572
1	1728	2573
1	1742	2574
1	1764	2575
1	1791	2576
1	1817	2577
1	1841	2578
1	1856	2579
1	1869	2580
1	1880	2581
1	1882	2582
1	1886	2583
1	1882	2584
1	1874	2585
1	1860	2586
1	1843	2587
1	1819	2588
1	1798	2589
1	1782	2590
1	1775	2591
1	1773	2592
1	1770	2593
1	1773	2594
1	1778	2595
1	1788	2596
1	1791	2597
1	1799	2598
1	1800	2599
1	1792	2600
1	1787	2601
1	1785	2602
1	1780	2603
1	1782	2604
1	1787	2605
1	1793	2606
1	1807	2607
1	1814	2608
1	1813	2609
1	1813	2610
1	1802	2611
1	1791	2612
1	1788	2613
1	1780	2614
1	1769	2615
1	1760	2616
1	1756	2617
1	1747	2618
1	1738	2619
1	1733	2640
1	1747	2641
1	1772	2642
1	1800	2643
1	1819	2644
1	1829	2645
1	1827	2646
1	1814	2647
1	1782	2648
1	1752	2649
1	1741	2650
1	1734	2651
1	1734	2652
1	1742	2653
1	1762	2654
1	1782	2655
1	1809	2656
1	1822	2657
1	1842	2658
1	1849	2659
1	1733	2620
1	1730	2621
1	1731	2622
1	1733	2623
1	1739	2624
1	1753	2625
1	1773	2626
1	1778	2627
1	1787	2628
1	1784	2629
1	1778	2630
1	1770	2631
1	1769	2632
1	1764	2633
1	1754	2634
1	1742	2635
1	1733	2636
1	1726	2637
1	1727	2638
1	1726	2639
1	1843	2660
1	1831	2661
1	1826	2662
1	1817	2663
1	1803	2664
1	1791	2665
1	1772	2666
1	1755	2667
1	1740	2668
1	1726	2669
1	1721	2670
1	1725	2671
1	1729	2672
1	1740	2673
1	1753	2674
1	1764	2675
1	1769	2676
1	1788	2677
1	1798	2678
1	1813	2679
1	1817	2680
1	1818	2681
1	1819	2682
1	1818	2683
1	1820	2684
1	1818	2685
1	1821	2686
1	1818	2687
1	1817	2688
1	1818	2689
1	1820	2690
1	1819	2691
1	1828	2692
1	1829	2693
1	1828	2694
1	1828	2695
1	1823	2696
1	1822	2697
1	1819	2698
1	1811	2699
1	1785	2700
1	1765	2701
1	1751	2702
1	1739	2703
1	1727	2704
1	1723	2705
1	1728	2706
1	1742	2707
1	1757	2708
1	1776	2709
1	1796	2710
1	1823	2711
1	1843	2712
1	1856	2713
1	1868	2714
1	1873	2715
1	1878	2716
1	1869	2717
1	1862	2718
1	1857	2719
1	1857	2720
1	1856	2721
1	1859	2722
1	1855	2723
1	1848	2724
1	1844	2725
1	1841	2726
1	1835	2727
1	1833	2728
1	1831	2729
1	1829	2730
1	1826	2731
1	1814	2732
1	1798	2733
1	1788	2734
1	1787	2735
1	1791	2736
1	1799	2737
1	1801	2738
1	1791	2739
1	1790	2740
1	1780	2741
1	1766	2742
1	1766	2743
1	1777	2744
1	1787	2745
1	1791	2746
1	1793	2747
1	1795	2748
1	1796	2749
1	1800	2750
1	1796	2751
1	1791	2752
1	1784	2753
1	1770	2754
1	1787	2755
1	1793	2756
1	1814	2757
1	1823	2758
1	1827	2759
1	1836	2760
1	1839	2761
1	1837	2762
1	1836	2763
1	1829	2764
1	1819	2765
1	1815	2766
1	1816	2767
1	1817	2768
1	1824	2769
1	1837	2770
1	1842	2771
1	1841	2772
1	1835	2773
1	1830	2774
1	1823	2775
1	1818	2776
1	1808	2777
1	1798	2778
1	1791	2779
1	1787	2780
1	1783	2781
1	1791	2782
1	1796	2783
1	1803	2784
1	1818	2785
1	1834	2786
1	1843	2787
1	1845	2788
1	1839	2789
1	1823	2790
1	1809	2791
1	1789	2792
1	1782	2793
1	1774	2794
1	1767	2795
1	1764	2796
1	1764	2797
1	1753	2798
1	1746	2799
1	1738	2800
1	1742	2801
1	1746	2802
1	1753	2803
1	1761	2804
1	1768	2805
1	1773	2806
1	1769	2807
1	1773	2808
1	1773	2809
1	1777	2810
1	1778	2811
1	1790	2812
1	1791	2813
1	1798	2814
1	1802	2815
1	1803	2816
1	1796	2817
1	1788	2818
1	1785	2819
1	1769	2840
1	1777	2841
1	1791	2842
1	1809	2843
1	1817	2844
1	1818	2845
1	1826	2846
1	1831	2847
1	1835	2848
1	1841	2849
1	1844	2850
1	1842	2851
1	1824	2852
1	1809	2853
1	1793	2854
1	1785	2855
1	1780	2856
1	1780	2857
1	1776	2858
1	1773	2859
1	1791	2820
1	1801	2821
1	1801	2822
1	1802	2823
1	1796	2824
1	1797	2825
1	1801	2826
1	1817	2827
1	1818	2828
1	1824	2829
1	1821	2830
1	1816	2831
1	1803	2832
1	1795	2833
1	1793	2834
1	1795	2835
1	1791	2836
1	1778	2837
1	1770	2838
1	1767	2839
1	1764	2860
1	1759	2861
1	1752	2862
1	1751	2863
1	1752	2864
1	1757	2865
1	1764	2866
1	1761	2867
1	1760	2868
1	1760	2869
1	1757	2870
1	1755	2871
1	1756	2872
1	1760	2873
1	1769	2874
1	1786	2875
1	1800	2876
1	1817	2877
1	1830	2878
1	1830	2879
1	1821	2880
1	1808	2881
1	1787	2882
1	1778	2883
1	1778	2884
1	1777	2885
1	1778	2886
1	1786	2887
1	1785	2888
1	1783	2889
1	1787	2890
1	1787	2891
1	1787	2892
1	1781	2893
1	1772	2894
1	1762	2895
1	1746	2896
1	1727	2897
1	1713	2898
1	1706	2899
1	1695	2900
1	1687	2901
1	1686	2902
1	1686	2903
1	1693	2904
1	1700	2905
1	1704	2906
1	1714	2907
1	1726	2908
1	1737	2909
1	1743	2910
1	1750	2911
1	1746	2912
1	1750	2913
1	1752	2914
1	1760	2915
1	1763	2916
1	1769	2917
1	1770	2918
1	1769	2919
1	1764	2920
1	1749	2921
1	1731	2922
1	1715	2923
1	1712	2924
1	1712	2925
1	1715	2926
1	1713	2927
1	1720	2928
1	1730	2929
1	1738	2930
1	1747	2931
1	1762	2932
1	1765	2933
1	1769	2934
1	1773	2935
1	1777	2936
1	1779	2937
1	1779	2938
1	1769	2939
1	1762	2940
1	1749	2941
1	1738	2942
1	1729	2943
1	1728	2944
1	1730	2945
1	1737	2946
1	1742	2947
1	1746	2948
1	1738	2949
1	1739	2950
1	1738	2951
1	1737	2952
1	1737	2953
1	1733	2954
1	1737	2955
1	1738	2956
1	1731	2957
1	1737	2958
1	1738	2959
1	1747	2960
1	1757	2961
1	1772	2962
1	1778	2963
1	1777	2964
1	1773	2965
1	1769	2966
1	1764	2967
1	1759	2968
1	1750	2969
1	1738	2970
1	1729	2971
1	1715	2972
1	1712	2973
1	1712	2974
1	1710	2975
1	1711	2976
1	1712	2977
1	1715	2978
1	1718	2979
1	1716	2980
1	1715	2981
1	1717	2982
1	1726	2983
1	1737	2984
1	1746	2985
1	1755	2986
1	1754	2987
1	1752	2988
1	1752	2989
1	1763	2990
1	1775	2991
1	1791	2992
1	1795	2993
1	1796	2994
1	1798	2995
1	1795	2996
1	1791	2997
1	1782	2998
1	1773	2999
1	1765	3000
1	1764	3001
1	1764	3002
1	1769	3003
1	1775	3004
1	1776	3005
1	1784	3006
1	1795	3007
1	1796	3008
1	1795	3009
1	1791	3010
1	1780	3011
1	1769	3012
1	1763	3013
1	1760	3014
1	1760	3015
1	1767	3016
1	1764	3017
1	1765	3018
1	1764	3019
1	1764	3020
1	1769	3021
1	1779	3022
1	1778	3023
1	1769	3024
1	1757	3025
1	1742	3026
1	1731	3027
1	1719	3028
1	1716	3029
1	1723	3030
1	1737	3031
1	1749	3032
1	1770	3033
1	1798	3034
1	1825	3035
1	1845	3036
1	1861	3037
1	1862	3038
1	1852	3039
1	1844	3040
1	1843	3041
1	1825	3042
1	1803	3043
1	1787	3044
1	1769	3045
1	1761	3046
1	1757	3047
1	1762	3048
1	1764	3049
1	1772	3050
1	1778	3051
1	1786	3052
1	1791	3053
1	1798	3054
1	1811	3055
1	1817	3056
1	1816	3057
1	1814	3058
1	1800	3059
1	1787	3060
1	1771	3061
1	1754	3062
1	1744	3063
1	1738	3064
1	1738	3065
1	1739	3066
1	1744	3067
1	1741	3068
1	1738	3069
1	1738	3070
1	1735	3071
1	1733	3072
1	1733	3073
1	1738	3074
1	1742	3075
1	1751	3076
1	1753	3077
1	1757	3078
1	1756	3079
1	1753	3080
1	1751	3081
1	1750	3082
1	1742	3083
1	1734	3084
1	1724	3085
1	1718	3086
1	1716	3087
1	1712	3088
1	1709	3089
1	1703	3090
1	1700	3091
1	1692	3092
1	1687	3093
1	1686	3094
1	1687	3095
1	1693	3096
1	1704	3097
1	1712	3098
1	1715	3099
1	1712	3100
1	1721	3101
1	1718	3102
1	1708	3103
1	1697	3104
1	1693	3105
1	1695	3106
1	1697	3107
1	1710	3108
1	1723	3109
1	1736	3110
1	1747	3111
1	1762	3112
1	1763	3113
1	1755	3114
1	1744	3115
1	1737	3116
1	1737	3117
1	1742	3118
1	1747	3119
1	1751	3120
1	1755	3121
1	1751	3122
1	1751	3123
1	1752	3124
1	1751	3125
1	1744	3126
1	1743	3127
1	1734	3128
1	1724	3129
1	1714	3130
1	1712	3131
1	1713	3132
1	1716	3133
1	1721	3134
1	1723	3135
1	1724	3136
1	1721	3137
1	1721	3138
1	1719	3139
1	1717	3140
1	1713	3141
1	1723	3142
1	1724	3143
1	1744	3144
1	1759	3145
1	1773	3146
1	1785	3147
1	1796	3148
1	1809	3149
1	1824	3150
1	1850	3151
1	1873	3152
1	1908	3153
1	1940	3154
1	1969	3155
1	2000	3156
1	2028	3157
1	2052	3158
1	2079	3159
1	2092	3160
1	2104	3161
1	2110	3162
1	2122	3163
1	2131	3164
1	2139	3165
1	2149	3166
1	2157	3167
1	2172	3168
1	2187	3169
1	2208	3170
1	2235	3171
1	2262	3172
1	2282	3173
1	2305	3174
1	2327	3175
1	2348	3176
1	2364	3177
1	2372	3178
1	2376	3179
1	2368	3180
1	2352	3181
1	2315	3182
1	2273	3183
1	2210	3184
1	2139	3185
1	2052	3186
1	1969	3187
1	1876	3188
1	1783	3189
1	1701	3190
1	1641	3191
1	1602	3192
1	1581	3193
1	1571	3194
1	1567	3195
1	1578	3196
1	1587	3197
1	1608	3198
1	1642	3199
1	1674	3200
1	1701	3201
1	1728	3202
1	1738	3203
1	1746	3204
1	1750	3205
1	1752	3206
1	1751	3207
1	1744	3208
1	1736	3209
1	1724	3210
1	1718	3211
1	1712	3212
1	1715	3213
1	1722	3214
1	1728	3215
1	1731	3216
1	1738	3217
1	1738	3218
1	1737	3219
1	1731	3220
1	1724	3221
1	1719	3222
1	1721	3223
1	1724	3224
1	1733	3225
1	1742	3226
1	1742	3227
1	1753	3228
1	1764	3229
1	1772	3230
1	1775	3231
1	1787	3232
1	1792	3233
1	1795	3234
1	1795	3235
1	1792	3236
1	1788	3237
1	1782	3238
1	1773	3239
1	1766	3240
1	1763	3241
1	1757	3242
1	1754	3243
1	1751	3244
1	1747	3245
1	1738	3246
1	1724	3247
1	1712	3248
1	1699	3249
1	1689	3250
1	1688	3251
1	1688	3252
1	1690	3253
1	1697	3254
1	1700	3255
1	1705	3256
1	1707	3257
1	1714	3258
1	1728	3259
1	1738	3260
1	1751	3261
1	1765	3262
1	1775	3263
1	1787	3264
1	1791	3265
1	1791	3266
1	1790	3267
1	1782	3268
1	1775	3269
1	1769	3270
1	1764	3271
1	1751	3272
1	1744	3273
1	1737	3274
1	1725	3275
1	1713	3276
1	1717	3277
1	1721	3278
1	1726	3279
1	1729	3280
1	1726	3281
1	1721	3282
1	1720	3283
1	1721	3284
1	1724	3285
1	1733	3286
1	1737	3287
1	1752	3288
1	1769	3289
1	1780	3290
1	1787	3291
1	1791	3292
1	1791	3293
1	1793	3294
1	1795	3295
1	1799	3296
1	1802	3297
1	1801	3298
1	1801	3299
1	1803	3300
1	1803	3301
1	1796	3302
1	1792	3303
1	1791	3304
1	1791	3305
1	1791	3306
1	1791	3307
1	1790	3308
1	1786	3309
1	1786	3310
1	1791	3311
1	1795	3312
1	1801	3313
1	1809	3314
1	1809	3315
1	1809	3316
1	1793	3317
1	1787	3318
1	1781	3319
1	1769	3320
1	1764	3321
1	1772	3322
1	1770	3323
1	1769	3324
1	1769	3325
1	1774	3326
1	1781	3327
1	1787	3328
1	1790	3329
1	1790	3330
1	1788	3331
1	1777	3332
1	1772	3333
1	1776	3334
1	1782	3335
1	1791	3336
1	1803	3337
1	1816	3338
1	1818	3339
1	1849	3360
1	1850	3361
1	1842	3362
1	1841	3363
1	1837	3364
1	1837	3365
1	1834	3366
1	1836	3367
1	1832	3368
1	1838	3369
1	1843	3370
1	1848	3371
1	1850	3372
1	1854	3373
1	1856	3374
1	1860	3375
1	1868	3376
1	1860	3377
1	1858	3378
1	1857	3379
1	1847	3380
1	1846	3381
1	1845	3382
1	1840	3383
1	1838	3384
1	1840	3385
1	1841	3386
1	1845	3387
1	1854	3388
1	1856	3389
1	1863	3390
1	1860	3391
1	1843	3392
1	1827	3393
1	1818	3394
1	1824	3395
1	1830	3396
1	1838	3397
1	1841	3398
1	1841	3399
1	1831	3340
1	1843	3341
1	1840	3342
1	1832	3343
1	1818	3344
1	1801	3345
1	1790	3346
1	1779	3347
1	1769	3348
1	1755	3349
1	1739	3350
1	1734	3351
1	1735	3352
1	1741	3353
1	1759	3354
1	1773	3355
1	1801	3356
1	1821	3357
1	1839	3358
1	1845	3359
1	1843	3400
1	1844	3401
1	1846	3402
1	1850	3403
1	1849	3404
1	1843	3405
1	1835	3406
1	1819	3407
1	1817	3408
1	1813	3409
1	1803	3410
1	1808	3411
1	1817	3412
1	1829	3413
1	1848	3414
1	1867	3415
1	1877	3416
1	1885	3417
1	1883	3418
1	1880	3419
1	1874	3420
1	1867	3421
1	1846	3422
1	1831	3423
1	1803	3424
1	1783	3425
1	1764	3426
1	1760	3427
1	1754	3428
1	1754	3429
1	1764	3430
1	1783	3431
1	1803	3432
1	1823	3433
1	1833	3434
1	1841	3435
1	1843	3436
1	1836	3437
1	1827	3438
1	1814	3439
1	1796	3440
1	1778	3441
1	1764	3442
1	1746	3443
1	1736	3444
1	1729	3445
1	1731	3446
1	1738	3447
1	1746	3448
1	1753	3449
1	1765	3450
1	1780	3451
1	1789	3452
1	1793	3453
1	1793	3454
1	1787	3455
1	1773	3456
1	1761	3457
1	1744	3458
1	1738	3459
1	1721	3460
1	1701	3461
1	1687	3462
1	1679	3463
1	1672	3464
1	1670	3465
1	1664	3466
1	1654	3467
1	1656	3468
1	1656	3469
1	1659	3470
1	1668	3471
1	1682	3472
1	1685	3473
1	1682	3474
1	1679	3475
1	1674	3476
1	1662	3477
1	1657	3478
1	1652	3479
1	1647	3480
1	1644	3481
1	1638	3482
1	1638	3483
1	1636	3484
1	1638	3485
1	1634	3486
1	1634	3487
1	1634	3488
1	1634	3489
1	1637	3490
1	1635	3491
1	1632	3492
1	1631	3493
1	1628	3494
1	1625	3495
1	1625	3496
1	1619	3497
1	1608	3498
1	1598	3499
1	1590	3500
1	1585	3501
1	1594	3502
1	1602	3503
1	1611	3504
1	1625	3505
1	1638	3506
1	1651	3507
1	1661	3508
1	1670	3509
1	1672	3510
1	1665	3511
1	1651	3512
1	1638	3513
1	1633	3514
1	1634	3515
1	1631	3516
1	1634	3517
1	1634	3518
1	1633	3519
1	1633	3520
1	1631	3521
1	1631	3522
1	1630	3523
1	1626	3524
1	1622	3525
1	1620	3526
1	1616	3527
1	1625	3528
1	1635	3529
1	1644	3530
1	1647	3531
1	1650	3532
1	1645	3533
1	1639	3534
1	1638	3535
1	1643	3536
1	1646	3537
1	1647	3538
1	1639	3539
1	1635	3540
1	1631	3541
1	1621	3542
1	1613	3543
1	1615	3544
1	1621	3545
1	1630	3546
1	1634	3547
1	1634	3548
1	1638	3549
1	1636	3550
1	1643	3551
1	1643	3552
1	1644	3553
1	1643	3554
1	1645	3555
1	1647	3556
1	1647	3557
1	1654	3558
1	1661	3559
1	1668	3560
1	1670	3561
1	1673	3562
1	1672	3563
1	1667	3564
1	1660	3565
1	1659	3566
1	1659	3567
1	1661	3568
1	1665	3569
1	1670	3570
1	1671	3571
1	1663	3572
1	1660	3573
1	1656	3574
1	1647	3575
1	1639	3576
1	1633	3577
1	1618	3578
1	1607	3579
1	1607	3580
1	1607	3581
1	1607	3582
1	1612	3583
1	1622	3584
1	1634	3585
1	1647	3586
1	1655	3587
1	1661	3588
1	1670	3589
1	1673	3590
1	1674	3591
1	1678	3592
1	1670	3593
1	1665	3594
1	1661	3595
1	1659	3596
1	1651	3597
1	1647	3598
1	1647	3599
1	1642	3600
1	1634	3601
1	1623	3602
1	1607	3603
1	1593	3604
1	1573	3605
1	1556	3606
1	1558	3607
1	1571	3608
1	1587	3609
1	1616	3610
1	1648	3611
1	1680	3612
1	1703	3613
1	1715	3614
1	1712	3615
1	1702	3616
1	1683	3617
1	1665	3618
1	1656	3619
1	1647	3620
1	1641	3621
1	1652	3622
1	1660	3623
1	1667	3624
1	1675	3625
1	1682	3626
1	1686	3627
1	1690	3628
1	1695	3629
1	1700	3630
1	1704	3631
1	1695	3632
1	1684	3633
1	1670	3634
1	1656	3635
1	1641	3636
1	1631	3637
1	1616	3638
1	1605	3639
1	1602	3640
1	1610	3641
1	1615	3642
1	1621	3643
1	1622	3644
1	1620	3645
1	1616	3646
1	1618	3647
1	1623	3648
1	1636	3649
1	1647	3650
1	1654	3651
1	1647	3652
1	1638	3653
1	1638	3654
1	1638	3655
1	1647	3656
1	1647	3657
1	1648	3658
1	1651	3659
1	1656	3660
1	1656	3661
1	1645	3662
1	1638	3663
1	1628	3664
1	1620	3665
1	1611	3666
1	1620	3667
1	1621	3668
1	1615	3669
1	1607	3670
1	1593	3671
1	1583	3672
1	1585	3673
1	1596	3674
1	1608	3675
1	1629	3676
1	1642	3677
1	1658	3678
1	1667	3679
1	1675	3680
1	1675	3681
1	1685	3682
1	1687	3683
1	1684	3684
1	1671	3685
1	1655	3686
1	1634	3687
1	1625	3688
1	1616	3689
1	1610	3690
1	1608	3691
1	1607	3692
1	1607	3693
1	1607	3694
1	1607	3695
1	1610	3696
1	1615	3697
1	1615	3698
1	1618	3699
1	1622	3700
1	1630	3701
1	1634	3702
1	1634	3703
1	1634	3704
1	1634	3705
1	1635	3706
1	1634	3707
1	1639	3708
1	1644	3709
1	1642	3710
1	1638	3711
1	1647	3712
1	1652	3713
1	1657	3714
1	1659	3715
1	1661	3716
1	1665	3717
1	1668	3718
1	1665	3719
1	1665	3720
1	1664	3721
1	1660	3722
1	1661	3723
1	1662	3724
1	1660	3725
1	1660	3726
1	1661	3727
1	1658	3728
1	1650	3729
1	1645	3730
1	1634	3731
1	1623	3732
1	1609	3733
1	1595	3734
1	1585	3735
1	1580	3736
1	1573	3737
1	1575	3738
1	1577	3739
1	1583	3740
1	1593	3741
1	1607	3742
1	1613	3743
1	1611	3744
1	1618	3745
1	1620	3746
1	1616	3747
1	1617	3748
1	1625	3749
1	1631	3750
1	1642	3751
1	1647	3752
1	1660	3753
1	1667	3754
1	1671	3755
1	1669	3756
1	1668	3757
1	1658	3758
1	1655	3759
1	1647	3760
1	1636	3761
1	1625	3762
1	1613	3763
1	1610	3764
1	1610	3765
1	1618	3766
1	1618	3767
1	1625	3768
1	1634	3769
1	1639	3770
1	1641	3771
1	1643	3772
1	1637	3773
1	1636	3774
1	1634	3775
1	1633	3776
1	1628	3777
1	1626	3778
1	1629	3779
1	1634	3780
1	1634	3781
1	1629	3782
1	1623	3783
1	1611	3784
1	1595	3785
1	1580	3786
1	1577	3787
1	1573	3788
1	1572	3789
1	1569	3790
1	1571	3791
1	1580	3792
1	1594	3793
1	1607	3794
1	1626	3795
1	1642	3796
1	1652	3797
1	1664	3798
1	1682	3799
1	1691	3800
1	1699	3801
1	1703	3802
1	1691	3803
1	1679	3804
1	1670	3805
1	1665	3806
1	1673	3807
1	1681	3808
1	1686	3809
1	1686	3810
1	1683	3811
1	1670	3812
1	1660	3813
1	1652	3814
1	1645	3815
1	1638	3816
1	1638	3817
1	1638	3818
1	1638	3819
1	1641	3820
1	1644	3821
1	1648	3822
1	1649	3823
1	1646	3824
1	1643	3825
1	1641	3826
1	1636	3827
1	1638	3828
1	1642	3829
1	1648	3830
1	1652	3831
1	1660	3832
1	1662	3833
1	1668	3834
1	1674	3835
1	1683	3836
1	1683	3837
1	1680	3838
1	1664	3839
1	1657	3840
1	1647	3841
1	1643	3842
1	1638	3843
1	1636	3844
1	1633	3845
1	1621	3846
1	1608	3847
1	1594	3848
1	1582	3849
1	1570	3850
1	1570	3851
1	1560	3852
1	1557	3853
1	1557	3854
1	1563	3855
1	1567	3856
1	1564	3857
1	1570	3858
1	1581	3859
1	1597	3860
1	1610	3861
1	1634	3862
1	1647	3863
1	1665	3864
1	1685	3865
1	1699	3866
1	1712	3867
1	1723	3868
1	1729	3869
1	1736	3870
1	1736	3871
1	1728	3872
1	1724	3873
1	1719	3874
1	1712	3875
1	1700	3876
1	1693	3877
1	1685	3878
1	1676	3879
1	1663	3880
1	1657	3881
1	1652	3882
1	1656	3883
1	1661	3884
1	1672	3885
1	1686	3886
1	1687	3887
1	1691	3888
1	1688	3889
1	1679	3890
1	1665	3891
1	1659	3892
1	1647	3893
1	1638	3894
1	1636	3895
1	1638	3896
1	1642	3897
1	1645	3898
1	1656	3899
1	1668	3900
1	1681	3901
1	1688	3902
1	1698	3903
1	1712	3904
1	1720	3905
1	1725	3906
1	1734	3907
1	1737	3908
1	1731	3909
1	1719	3910
1	1701	3911
1	1683	3912
1	1667	3913
1	1659	3914
1	1654	3915
1	1649	3916
1	1647	3917
1	1652	3918
1	1660	3919
1	1665	3920
1	1670	3921
1	1683	3922
1	1686	3923
1	1694	3924
1	1703	3925
1	1710	3926
1	1712	3927
1	1712	3928
1	1707	3929
1	1701	3930
1	1690	3931
1	1678	3932
1	1668	3933
1	1657	3934
1	1642	3935
1	1631	3936
1	1620	3937
1	1605	3938
1	1587	3939
1	1580	3940
1	1589	3941
1	1596	3942
1	1607	3943
1	1619	3944
1	1633	3945
1	1642	3946
1	1652	3947
1	1663	3948
1	1672	3949
1	1675	3950
1	1670	3951
1	1658	3952
1	1638	3953
1	1624	3954
1	1608	3955
1	1608	3956
1	1608	3957
1	1613	3958
1	1620	3959
1	1628	3960
1	1631	3961
1	1621	3962
1	1617	3963
1	1609	3964
1	1596	3965
1	1585	3966
1	1584	3967
1	1580	3968
1	1579	3969
1	1574	3970
1	1579	3971
1	1581	3972
1	1579	3973
1	1581	3974
1	1590	3975
1	1595	3976
1	1595	3977
1	1602	3978
1	1613	3979
1	1624	3980
1	1633	3981
1	1643	3982
1	1642	3983
1	1634	3984
1	1625	3985
1	1610	3986
1	1597	3987
1	1593	3988
1	1595	3989
1	1603	3990
1	1618	3991
1	1625	3992
1	1632	3993
1	1638	3994
1	1644	3995
1	1656	3996
1	1670	3997
1	1674	3998
1	1674	3999
1	1667	4000
1	1661	4001
1	1656	4002
1	1651	4003
1	1651	4004
1	1654	4005
1	1655	4006
1	1644	4006
1	1634	4008
1	1625	4009
1	1619	4010
1	1613	4011
1	1617	4012
1	1608	4013
1	1603	4014
1	1593	4014
1	1587	4016
1	1584	4017
1	1587	4018
1	1602	4019
1	1625	4020
1	1650	4021
1	1676	4022
1	1708	4022
1	1741	4024
1	1777	4025
1	1821	4026
1	1877	4027
1	1930	4028
1	1979	4029
1	2020	4030
1	2051	4030
1	2070	4032
1	2089	4033
1	2105	4034
1	2122	4035
1	2137	4036
1	2143	4037
1	2157	4038
1	2171	4038
1	1737	4080
1	1734	4081
1	1729	4082
1	1731	4083
1	1730	4084
1	1727	4085
1	1726	4086
1	1721	4086
1	1701	4088
1	1686	4089
1	1671	4090
1	1659	4091
1	1652	4092
1	1647	4093
1	1646	4094
1	1651	4094
1	1658	4096
1	1660	4097
1	1665	4098
1	1674	4099
1	1817	4080
1	1731	4081
1	1654	4082
1	1592	4083
1	1544	4084
1	1523	4085
1	1518	4086
1	1521	4086
1	1542	4088
1	1562	4089
1	1585	4090
1	1609	4091
1	1636	4092
1	1660	4093
1	1681	4094
1	1698	4094
1	1712	4096
1	1724	4097
1	1730	4098
1	1736	4099
1	2188	4040
1	2210	4041
1	2246	4042
1	2264	4043
1	2296	4044
1	2319	4045
1	2341	4046
1	2359	4046
1	2378	4048
1	2391	4049
1	2395	4050
1	2399	4051
1	2380	4052
1	2356	4053
1	2312	4054
1	2248	4054
1	2168	4056
1	2079	4057
1	1989	4058
1	1906	4059
1	1685	4100
1	1687	4101
1	1692	4102
1	1685	4103
1	1671	4104
1	1659	4105
1	1647	4106
1	1646	4107
1	1646	4108
1	1639	4109
1	1634	4110
1	1629	4111
1	1616	4112
1	1609	4113
1	1607	4114
1	1612	4115
1	1618	4116
1	1629	4117
1	1636	4118
1	1647	4119
1	1656	4120
1	1658	4121
1	1657	4122
1	1657	4123
1	1658	4124
1	1660	4125
1	1662	4126
1	1664	4127
1	1674	4128
1	1687	4129
1	1699	4130
1	1706	4131
1	1714	4132
1	1715	4133
1	1716	4134
1	1713	4135
1	1708	4136
1	1701	4137
1	1698	4138
1	1692	4139
1	1692	4140
1	1687	4141
1	1685	4142
1	1675	4143
1	1664	4144
1	1659	4145
1	1655	4146
1	1660	4147
1	1660	4148
1	1670	4149
1	1684	4150
1	1700	4151
1	1712	4152
1	1726	4153
1	1738	4154
1	1740	4155
1	1740	4156
1	1728	4157
1	1726	4158
1	1727	4159
1	1726	4160
1	1721	4161
1	1720	4162
1	1713	4163
1	1712	4164
1	1715	4165
1	1725	4166
1	1735	4167
1	1739	4168
1	1746	4169
1	1751	4170
1	1754	4171
1	1751	4172
1	1751	4173
1	1746	4174
1	1742	4175
1	1744	4176
1	1753	4177
1	1753	4178
1	1751	4179
1	1783	4200
1	1793	4201
1	1795	4202
1	1798	4203
1	1795	4204
1	1791	4205
1	1780	4206
1	1770	4207
1	1755	4208
1	1738	4209
1	1721	4210
1	1710	4211
1	1699	4212
1	1694	4213
1	1697	4214
1	1698	4215
1	1705	4216
1	1710	4217
1	1720	4218
1	1730	4219
1	1743	4180
1	1729	4181
1	1718	4182
1	1707	4183
1	1693	4184
1	1683	4185
1	1672	4186
1	1660	4187
1	1664	4188
1	1679	4189
1	1697	4190
1	1720	4191
1	1747	4192
1	1764	4193
1	1769	4194
1	1773	4195
1	1773	4196
1	1770	4197
1	1772	4198
1	1777	4199
1	1739	4220
1	1747	4221
1	1763	4222
1	1770	4223
1	1785	4224
1	1801	4225
1	1822	4226
1	1839	4227
1	1848	4228
1	1856	4229
1	1859	4230
1	1867	4231
1	1864	4232
1	1857	4233
1	1843	4234
1	1826	4235
1	1808	4236
1	1788	4237
1	1764	4238
1	1744	4239
1	1733	4240
1	1725	4241
1	1712	4242
1	1710	4243
1	1704	4244
1	1709	4245
1	1713	4246
1	1719	4247
1	1725	4248
1	1733	4249
1	1737	4250
1	1737	4251
1	1742	4252
1	1737	4253
1	1744	4254
1	1752	4255
1	1780	4256
1	1815	4257
1	1843	4258
1	1869	4259
1	1895	4260
1	1917	4261
1	1922	4262
1	1922	4263
1	1917	4264
1	1906	4265
1	1893	4266
1	1877	4267
1	1857	4268
1	1835	4269
1	1812	4270
1	1792	4271
1	1790	4272
1	1793	4273
1	1800	4274
1	1811	4275
1	1817	4276
1	1821	4277
1	1829	4278
1	1834	4279
1	1842	4280
1	1850	4281
1	1857	4282
1	1856	4283
1	1843	4284
1	1827	4285
1	1816	4286
1	1809	4287
1	1799	4288
1	1792	4289
1	1791	4290
1	1791	4291
1	1791	4292
1	1800	4293
1	1812	4294
1	1817	4295
1	1816	4296
1	1816	4297
1	1803	4298
1	1791	4299
1	1772	4300
1	1760	4301
1	1751	4302
1	1751	4303
1	1753	4304
1	1759	4305
1	1764	4306
1	1763	4307
1	1764	4308
1	1764	4309
1	1762	4310
1	1760	4311
1	1764	4312
1	1773	4313
1	1787	4314
1	1796	4315
1	1813	4316
1	1817	4317
1	1817	4318
1	1820	4319
1	1821	4320
1	1821	4321
1	1809	4322
1	1794	4323
1	1783	4324
1	1770	4325
1	1754	4326
1	1738	4327
1	1717	4328
1	1706	4329
1	1699	4330
1	1700	4331
1	1700	4332
1	1703	4333
1	1701	4334
1	1709	4335
1	1712	4336
1	1705	4337
1	1697	4338
1	1686	4339
1	1675	4340
1	1662	4341
1	1665	4342
1	1665	4343
1	1657	4344
1	1654	4345
1	1657	4346
1	1643	4347
1	1638	4348
1	1638	4349
1	1641	4350
1	1648	4351
1	1660	4352
1	1667	4353
1	1674	4354
1	1672	4355
1	1665	4356
1	1660	4357
1	1634	4358
1	1611	4359
1	1599	4360
1	1582	4361
1	1566	4362
1	1554	4363
1	1541	4364
1	1539	4365
1	1551	4366
1	1566	4367
1	1580	4368
1	1589	4369
1	1598	4370
1	1605	4371
1	1607	4372
1	1603	4373
1	1594	4374
1	1593	4375
1	1592	4376
1	1593	4377
1	1595	4378
1	1600	4379
1	1606	4380
1	1612	4381
1	1612	4382
1	1613	4383
1	1621	4384
1	1629	4385
1	1634	4386
1	1635	4387
1	1628	4388
1	1620	4389
1	1622	4390
1	1625	4391
1	1629	4392
1	1634	4393
1	1634	4394
1	1636	4395
1	1636	4396
1	1632	4397
1	1625	4398
1	1623	4399
1	1620	4400
1	1620	4401
1	1625	4402
1	1634	4403
1	1639	4404
1	1647	4405
1	1656	4406
1	1661	4407
1	1673	4408
1	1682	4409
1	1680	4410
1	1671	4411
1	1651	4412
1	1638	4413
1	1631	4414
1	1628	4415
1	1629	4416
1	1634	4417
1	1629	4418
1	1623	4419
1	1710	4440
1	1701	4441
1	1693	4442
1	1678	4443
1	1660	4444
1	1643	4445
1	1625	4446
1	1616	4447
1	1597	4448
1	1598	4449
1	1596	4450
1	1600	4451
1	1602	4452
1	1607	4453
1	1607	4454
1	1610	4455
1	1622	4456
1	1631	4457
1	1647	4458
1	1660	4459
1	1618	4420
1	1616	4421
1	1617	4422
1	1616	4423
1	1616	4424
1	1618	4425
1	1616	4426
1	1613	4427
1	1618	4428
1	1620	4429
1	1625	4430
1	1629	4431
1	1638	4432
1	1644	4433
1	1657	4434
1	1675	4435
1	1690	4436
1	1701	4437
1	1712	4438
1	1710	4439
1	1667	4460
1	1674	4461
1	1686	4462
1	1688	4463
1	1693	4464
1	1692	4465
1	1691	4466
1	1695	4467
1	1698	4468
1	1698	4469
1	1696	4470
1	1687	4471
1	1674	4472
1	1664	4473
1	1659	4474
1	1652	4475
1	1652	4476
1	1658	4477
1	1657	4478
1	1661	4479
1	1664	4480
1	1665	4481
1	1668	4482
1	1665	4483
1	1662	4484
1	1659	4485
1	1655	4486
1	1641	4487
1	1634	4488
1	1633	4489
1	1636	4490
1	1645	4491
1	1660	4492
1	1670	4493
1	1683	4494
1	1694	4495
1	1706	4496
1	1717	4497
1	1728	4498
1	1737	4499
1	1740	4500
1	1731	4501
1	1712	4502
1	1698	4503
1	1683	4504
1	1668	4505
1	1660	4506
1	1654	4507
1	1648	4508
1	1647	4509
1	1652	4510
1	1654	4511
1	1656	4512
1	1658	4513
1	1661	4514
1	1669	4515
1	1668	4516
1	1662	4517
1	1661	4518
1	1670	4519
1	1678	4520
1	1682	4521
1	1693	4522
1	1697	4523
1	1698	4524
1	1704	4525
1	1710	4526
1	1712	4527
1	1716	4528
1	1725	4529
1	1731	4530
1	1728	4531
1	1712	4532
1	1695	4533
1	1676	4534
1	1661	4535
1	1649	4536
1	1647	4537
1	1648	4538
1	1646	4539
1	1654	4540
1	1668	4541
1	1670	4542
1	1673	4543
1	1671	4544
1	1664	4545
1	1661	4546
1	1665	4547
1	1671	4548
1	1675	4549
1	1679	4550
1	1679	4551
1	1685	4552
1	1672	4553
1	1679	4554
1	1680	4555
1	1686	4556
1	1686	4557
1	1685	4558
1	1681	4559
1	1720	4580
1	1715	4581
1	1712	4582
1	1695	4583
1	1679	4584
1	1672	4585
1	1681	4586
1	1687	4587
1	1692	4588
1	1691	4589
1	1687	4590
1	1685	4591
1	1670	4592
1	1670	4593
1	1679	4594
1	1691	4595
1	1706	4596
1	1725	4597
1	1738	4598
1	1739	4599
1	1677	4560
1	1671	4561
1	1660	4562
1	1656	4563
1	1656	4564
1	1660	4565
1	1667	4566
1	1683	4567
1	1694	4568
1	1708	4569
1	1715	4570
1	1718	4571
1	1724	4572
1	1726	4573
1	1726	4574
1	1728	4575
1	1728	4576
1	1723	4577
1	1721	4578
1	1722	4579
1	1731	4600
1	1715	4601
1	1698	4602
1	1686	4603
1	1670	4604
1	1660	4605
1	1654	4606
1	1643	4607
1	1644	4608
1	1647	4609
1	1649	4610
1	1656	4611
1	1665	4612
1	1676	4613
1	1687	4614
1	1705	4615
1	1724	4616
1	1744	4617
1	1760	4618
1	1764	4619
1	1746	4640
1	1742	4641
1	1738	4642
1	1733	4643
1	1712	4644
1	1703	4645
1	1699	4646
1	1683	4647
1	1669	4648
1	1662	4649
1	1665	4650
1	1673	4651
1	1683	4652
1	1688	4653
1	1694	4654
1	1700	4655
1	1710	4656
1	1716	4657
1	1720	4658
1	1733	4659
1	1770	4620
1	1772	4621
1	1764	4622
1	1751	4623
1	1738	4624
1	1719	4625
1	1704	4626
1	1697	4627
1	1687	4628
1	1688	4629
1	1694	4630
1	1700	4631
1	1710	4632
1	1713	4633
1	1718	4634
1	1724	4635
1	1727	4636
1	1731	4637
1	1740	4638
1	1746	4639
1	1741	4660
1	1738	4661
1	1737	4662
1	1734	4663
1	1725	4664
1	1715	4665
1	1712	4666
1	1707	4667
1	1714	4668
1	1728	4669
1	1734	4670
1	1737	4671
1	1749	4672
1	1749	4673
1	1751	4674
1	1760	4675
1	1769	4676
1	1780	4677
1	1790	4678
1	1796	4679
1	1764	4700
1	1772	4701
1	1788	4702
1	1791	4703
1	1796	4704
1	1801	4705
1	1803	4706
1	1801	4707
1	1791	4708
1	1785	4709
1	1777	4710
1	1773	4711
1	1764	4712
1	1763	4713
1	1763	4714
1	1759	4715
1	1757	4716
1	1764	4717
1	1775	4718
1	1788	4719
1	1800	4680
1	1800	4681
1	1791	4682
1	1788	4683
1	1782	4684
1	1773	4685
1	1763	4686
1	1752	4687
1	1737	4688
1	1716	4689
1	1705	4690
1	1699	4691
1	1698	4692
1	1693	4693
1	1694	4694
1	1700	4695
1	1716	4696
1	1726	4697
1	1738	4698
1	1754	4699
1	1793	4720
1	1799	4721
1	1797	4722
1	1798	4723
1	1796	4724
1	1791	4725
1	1783	4726
1	1764	4727
1	1762	4728
1	1764	4729
1	1778	4730
1	1798	4731
1	1836	4732
1	1855	4733
1	1865	4734
1	1863	4735
1	1857	4736
1	1845	4737
1	1836	4738
1	1820	4739
1	1817	4740
1	1817	4741
1	1816	4742
1	1817	4743
1	1817	4744
1	1814	4745
1	1803	4746
1	1800	4747
1	1793	4748
1	1791	4749
1	1792	4750
1	1803	4751
1	1809	4752
1	1803	4753
1	1796	4754
1	1785	4755
1	1773	4756
1	1757	4757
1	1751	4758
1	1749	4759
1	1749	4780
1	1746	4781
1	1741	4782
1	1738	4783
1	1735	4784
1	1736	4785
1	1738	4786
1	1737	4787
1	1742	4788
1	1750	4789
1	1751	4790
1	1753	4791
1	1759	4792
1	1756	4793
1	1764	4794
1	1777	4795
1	1791	4796
1	1803	4797
1	1814	4798
1	1817	4799
1	1747	4760
1	1746	4761
1	1751	4762
1	1748	4763
1	1743	4764
1	1739	4765
1	1738	4766
1	1738	4767
1	1737	4768
1	1737	4769
1	1734	4770
1	1733	4771
1	1726	4772
1	1727	4773
1	1729	4774
1	1733	4775
1	1736	4776
1	1742	4777
1	1747	4778
1	1748	4779
1	1817	4800
1	1818	4801
1	1809	4802
1	1802	4803
1	1796	4804
1	1791	4805
1	1789	4806
1	1791	4807
1	1791	4808
1	1789	4809
1	1791	4810
1	1799	4811
1	1814	4812
1	1818	4813
1	1822	4814
1	1817	4815
1	1813	4816
1	1792	4817
1	1785	4818
1	1775	4819
1	1768	4820
1	1764	4821
1	1764	4822
1	1763	4823
1	1753	4824
1	1749	4825
1	1742	4826
1	1734	4827
1	1729	4828
1	1728	4829
1	1737	4830
1	1747	4831
1	1759	4832
1	1780	4833
1	1800	4834
1	1822	4835
1	1843	4836
1	1869	4837
1	1890	4838
1	1897	4839
1	1913	4840
1	1943	4841
1	1958	4842
1	1981	4843
1	2000	4844
1	2018	4845
1	2035	4846
1	2053	4847
1	2079	4848
1	2108	4849
1	2137	4850
1	2162	4851
1	2183	4852
1	2209	4853
1	2240	4854
1	2270	4855
1	2300	4856
1	2323	4857
1	2341	4858
1	2359	4859
1	2369	4860
1	2392	4861
1	2403	4862
1	2419	4863
1	2436	4864
1	2447	4865
1	2449	4866
1	2444	4867
1	2414	4868
1	2364	4869
1	2301	4870
1	2231	4871
1	2157	4872
1	2087	4873
1	2014	4874
1	1944	4875
1	1869	4876
1	1795	4877
1	1738	4878
1	1693	4879
1	1656	4880
1	1631	4881
1	1625	4882
1	1634	4883
1	1648	4884
1	1671	4885
1	1697	4886
1	1718	4887
1	1737	4888
1	1751	4889
1	1760	4890
1	1767	4891
1	1772	4892
1	1778	4893
1	1784	4894
1	1783	4895
1	1782	4896
1	1782	4897
1	1782	4898
1	1788	4899
1	1791	4900
1	1796	4901
1	1803	4902
1	1812	4903
1	1818	4904
1	1825	4905
1	1826	4906
1	1823	4907
1	1823	4908
1	1830	4909
1	1840	4910
1	1845	4911
1	1857	4912
1	1860	4913
1	1869	4914
1	1881	4915
1	1895	4916
1	1904	4917
1	1908	4918
1	1903	4919
1	1891	4920
1	1874	4921
1	1853	4922
1	1832	4923
1	1814	4924
1	1791	4925
1	1780	4926
1	1778	4927
1	1773	4928
1	1770	4929
1	1773	4930
1	1780	4931
1	1791	4932
1	1800	4933
1	1813	4934
1	1821	4935
1	1834	4936
1	1841	4937
1	1844	4938
1	1843	4939
1	1840	4940
1	1830	4941
1	1829	4942
1	1818	4943
1	1809	4944
1	1809	4945
1	1823	4946
1	1832	4947
1	1845	4948
1	1855	4949
1	1851	4950
1	1843	4951
1	1839	4952
1	1832	4953
1	1830	4954
1	1828	4955
1	1827	4956
1	1824	4957
1	1818	4958
1	1817	4959
1	1821	4960
1	1842	4961
1	1856	4962
1	1871	4963
1	1881	4964
1	1883	4965
1	1881	4966
1	1873	4967
1	1872	4968
1	1881	4969
1	1888	4970
1	1888	4971
1	1893	4972
1	1888	4973
1	1886	4974
1	1886	4975
1	1885	4976
1	1881	4977
1	1880	4978
1	1878	4979
1	1882	4980
1	1886	4981
1	1884	4982
1	1884	4983
1	1887	4984
1	1890	4985
1	1890	4986
1	1891	4987
1	1885	4988
1	1878	4989
1	1873	4990
1	1869	4991
1	1864	4992
1	1860	4993
1	1857	4994
1	1852	4995
1	1847	4996
1	1841	4997
1	1840	4998
1	1839	4999
1	1838	5000
1	1843	5001
1	1854	5002
1	1856	5003
1	1859	5004
1	1865	5005
1	1873	5006
1	1885	5007
1	1896	5008
1	1910	5009
1	1922	5010
1	1927	5011
1	1928	5012
1	1931	5013
1	1924	5014
1	1922	5015
1	1916	5016
1	1920	5017
1	1921	5018
1	1917	5019
1	1896	5040
1	1890	5041
1	1890	5042
1	1893	5043
1	1899	5044
1	1908	5045
1	1912	5046
1	1916	5047
1	1922	5048
1	1922	5049
1	1923	5050
1	1931	5051
1	1934	5052
1	1937	5053
1	1933	5054
1	1929	5055
1	1922	5056
1	1907	5057
1	1899	5058
1	1899	5059
1	1909	5020
1	1908	5021
1	1899	5022
1	1888	5023
1	1882	5024
1	1883	5025
1	1893	5026
1	1900	5027
1	1911	5028
1	1921	5029
1	1927	5030
1	1935	5031
1	1949	5032
1	1955	5033
1	1956	5034
1	1950	5035
1	1944	5036
1	1935	5037
1	1922	5038
1	1907	5039
1	1895	5060
1	1897	5061
1	1913	5062
1	1924	5063
1	1938	5064
1	1948	5065
1	1953	5066
1	1960	5067
1	1965	5068
1	1968	5069
1	1971	5070
1	1976	5071
1	1978	5072
1	1984	5073
1	1986	5074
1	1988	5075
1	1991	5076
1	2000	5077
1	2004	5078
1	2013	5079
1	2023	5080
1	2032	5081
1	2042	5082
1	2047	5083
1	2042	5084
1	2038	5085
1	2026	5086
1	2009	5087
1	1996	5088
1	1981	5089
1	1975	5090
1	1971	5091
1	1973	5092
1	1967	5093
1	1960	5094
1	1952	5095
1	1944	5096
1	1926	5097
1	1913	5098
1	1904	5099
1	1895	5100
1	1895	5101
1	1895	5102
1	1901	5103
1	1916	5104
1	1926	5105
1	1938	5106
1	1948	5107
1	1949	5108
1	1953	5109
1	1959	5110
1	1962	5111
1	1962	5112
1	1960	5113
1	1958	5114
1	1957	5115
1	1956	5116
1	1945	5117
1	1928	5118
1	1915	5119
1	1899	5120
1	1894	5121
1	1890	5122
1	1882	5123
1	1873	5124
1	1875	5125
1	1885	5126
1	1894	5127
1	1896	5128
1	1898	5129
1	1895	5130
1	1895	5131
1	1893	5132
1	1895	5133
1	1904	5134
1	1909	5135
1	1917	5136
1	1922	5137
1	1922	5138
1	1913	5139
1	1907	5140
1	1904	5141
1	1888	5142
1	1871	5143
1	1851	5144
1	1826	5145
1	1803	5146
1	1789	5147
1	1776	5148
1	1767	5149
1	1764	5150
1	1764	5151
1	1764	5152
1	1762	5153
1	1767	5154
1	1776	5155
1	1789	5156
1	1796	5157
1	1810	5158
1	1817	5159
1	1819	5160
1	1817	5161
1	1802	5162
1	1791	5163
1	1780	5164
1	1767	5165
1	1764	5166
1	1765	5167
1	1764	5168
1	1760	5169
1	1755	5170
1	1752	5171
1	1742	5172
1	1733	5173
1	1729	5174
1	1730	5175
1	1736	5176
1	1731	5177
1	1732	5178
1	1737	5179
1	1742	5180
1	1751	5181
1	1760	5182
1	1757	5183
1	1753	5184
1	1747	5185
1	1742	5186
1	1740	5187
1	1738	5188
1	1738	5189
1	1737	5190
1	1724	5191
1	1707	5192
1	1694	5193
1	1692	5194
1	1699	5195
1	1708	5196
1	1724	5197
1	1733	5198
1	1737	5199
1	1729	5200
1	1714	5201
1	1703	5202
1	1698	5203
1	1697	5204
1	1697	5205
1	1700	5206
1	1710	5207
1	1728	5208
1	1747	5209
1	1767	5210
1	1782	5211
1	1796	5212
1	1796	5213
1	1791	5214
1	1781	5215
1	1769	5216
1	1761	5217
1	1751	5218
1	1743	5219
1	1742	5220
1	1741	5221
1	1737	5222
1	1734	5223
1	1723	5224
1	1714	5225
1	1710	5226
1	1704	5227
1	1690	5228
1	1686	5229
1	1690	5230
1	1700	5231
1	1716	5232
1	1737	5233
1	1752	5234
1	1769	5235
1	1789	5236
1	1795	5237
1	1802	5238
1	1793	5239
1	1783	5240
1	1768	5241
1	1764	5242
1	1751	5243
1	1757	5244
1	1760	5245
1	1764	5246
1	1764	5247
1	1769	5248
1	1775	5249
1	1778	5250
1	1778	5251
1	1778	5252
1	1788	5253
1	1795	5254
1	1792	5255
1	1783	5256
1	1769	5257
1	1756	5258
1	1752	5259
1	1751	5260
1	1749	5261
1	1749	5262
1	1742	5263
1	1738	5264
1	1738	5265
1	1738	5266
1	1737	5267
1	1734	5268
1	1733	5269
1	1738	5270
1	1751	5271
1	1764	5272
1	1764	5273
1	1760	5274
1	1751	5275
1	1742	5276
1	1739	5277
1	1741	5278
1	1746	5279
1	1753	5300
1	1753	5301
1	1762	5302
1	1764	5303
1	1764	5304
1	1766	5305
1	1770	5306
1	1769	5307
1	1765	5308
1	1762	5309
1	1757	5310
1	1754	5311
1	1747	5312
1	1741	5313
1	1737	5314
1	1736	5315
1	1735	5316
1	1739	5317
1	1742	5318
1	1751	5319
1	1746	5280
1	1749	5281
1	1743	5282
1	1743	5283
1	1746	5284
1	1746	5285
1	1746	5286
1	1751	5287
1	1751	5288
1	1753	5289
1	1754	5290
1	1760	5291
1	1764	5292
1	1767	5293
1	1769	5294
1	1768	5295
1	1765	5296
1	1757	5297
1	1752	5298
1	1754	5299
1	1762	5320
1	1765	5321
1	1764	5322
1	1761	5323
1	1756	5324
1	1747	5325
1	1740	5326
1	1736	5327
1	1738	5328
1	1743	5329
1	1751	5330
1	1759	5331
1	1770	5332
1	1780	5333
1	1787	5334
1	1791	5335
1	1790	5336
1	1778	5337
1	1764	5338
1	1747	5339
1	1739	5340
1	1731	5341
1	1723	5342
1	1721	5343
1	1721	5344
1	1719	5345
1	1718	5346
1	1717	5347
1	1717	5348
1	1718	5349
1	1721	5350
1	1726	5351
1	1727	5352
1	1722	5353
1	1712	5354
1	1707	5355
1	1698	5356
1	1688	5357
1	1686	5358
1	1684	5359
1	1687	5360
1	1695	5361
1	1712	5362
1	1729	5363
1	1751	5364
1	1764	5365
1	1772	5366
1	1770	5367
1	1770	5368
1	1773	5369
1	1781	5370
1	1787	5371
1	1775	5372
1	1766	5373
1	1756	5374
1	1744	5375
1	1735	5376
1	1732	5377
1	1721	5378
1	1716	5379
1	1715	5380
1	1712	5381
1	1713	5382
1	1723	5383
1	1730	5384
1	1733	5385
1	1726	5386
1	1710	5387
1	1695	5388
1	1687	5389
1	1690	5390
1	1697	5391
1	1713	5392
1	1728	5393
1	1742	5394
1	1764	5395
1	1777	5396
1	1777	5397
1	1778	5398
1	1776	5399
1	1769	5400
1	1766	5401
1	1764	5402
1	1765	5403
1	1767	5404
1	1769	5405
1	1769	5406
1	1769	5407
1	1762	5408
1	1754	5409
1	1751	5410
1	1749	5411
1	1751	5412
1	1750	5413
1	1751	5414
1	1759	5415
1	1764	5416
1	1760	5417
1	1751	5418
1	1738	5419
1	1726	5420
1	1721	5421
1	1721	5422
1	1718	5423
1	1716	5424
1	1713	5425
1	1710	5426
1	1711	5427
1	1712	5428
1	1713	5429
1	1716	5430
1	1715	5431
1	1713	5432
1	1714	5433
1	1717	5434
1	1720	5435
1	1716	5436
1	1720	5437
1	1723	5438
1	1716	5439
1	1715	5440
1	1721	5441
1	1715	5442
1	1720	5443
1	1731	5444
1	1740	5445
1	1751	5446
1	1764	5447
1	1778	5448
1	1791	5449
1	1800	5450
1	1816	5451
1	1814	5452
1	1809	5453
1	1796	5454
1	1788	5455
1	1775	5456
1	1764	5457
1	1753	5458
1	1749	5459
1	1747	5460
1	1750	5461
1	1747	5462
1	1747	5463
1	1751	5464
1	1751	5465
1	1751	5466
1	1748	5467
1	1751	5468
1	1762	5469
1	1777	5470
1	1800	5471
1	1820	5472
1	1834	5473
1	1843	5474
1	1848	5475
1	1844	5476
1	1832	5477
1	1822	5478
1	1814	5479
1	1803	5480
1	1791	5481
1	1787	5482
1	1773	5483
1	1764	5484
1	1755	5485
1	1749	5486
1	1746	5487
1	1749	5488
1	1755	5489
1	1767	5490
1	1779	5491
1	1782	5492
1	1787	5493
1	1790	5494
1	1784	5495
1	1777	5496
1	1777	5497
1	1777	5498
1	1780	5499
1	1782	5500
1	1783	5501
1	1787	5502
1	1791	5503
1	1796	5504
1	1809	5505
1	1819	5506
1	1824	5507
1	1832	5508
1	1843	5509
1	1855	5510
1	1861	5511
1	1868	5512
1	1863	5513
1	1856	5514
1	1848	5515
1	1843	5516
1	1834	5517
1	1823	5518
1	1812	5519
1	1796	5520
1	1791	5521
1	1785	5522
1	1776	5523
1	1765	5524
1	1763	5525
1	1757	5526
1	1763	5527
1	1764	5528
1	1769	5529
1	1775	5530
1	1780	5531
1	1783	5532
1	1778	5533
1	1767	5534
1	1759	5535
1	1751	5536
1	1740	5537
1	1737	5538
1	1734	5539
1	1733	5540
1	1728	5541
1	1731	5542
1	1717	5543
1	1715	5544
1	1712	5545
1	1712	5546
1	1713	5547
1	1718	5548
1	1721	5549
1	1724	5550
1	1733	5551
1	1731	5552
1	1739	5553
1	1751	5554
1	1764	5555
1	1769	5556
1	1773	5557
1	1777	5558
1	1783	5559
1	1775	5560
1	1767	5561
1	1763	5562
1	1752	5563
1	1746	5564
1	1741	5565
1	1738	5566
1	1723	5567
1	1713	5568
1	1703	5569
1	1698	5570
1	1699	5571
1	1715	5572
1	1733	5573
1	1752	5574
1	1772	5575
1	1791	5576
1	1812	5577
1	1818	5578
1	1818	5579
1	1817	5580
1	1809	5581
1	1793	5582
1	1788	5583
1	1780	5584
1	1770	5585
1	1764	5586
1	1760	5587
1	1755	5588
1	1750	5589
1	1744	5590
1	1744	5591
1	1749	5592
1	1755	5593
1	1759	5594
1	1760	5595
1	1764	5596
1	1764	5597
1	1765	5598
1	1768	5599
1	1767	5600
1	1764	5601
1	1769	5602
1	1773	5603
1	1780	5604
1	1791	5605
1	1799	5606
1	1808	5607
1	1814	5608
1	1821	5609
1	1831	5610
1	1842	5611
1	1841	5612
1	1844	5613
1	1860	5614
1	1884	5615
1	1909	5616
1	1945	5617
1	1965	5618
1	1992	5619
1	2025	5620
1	2060	5621
1	2088	5622
1	2109	5623
1	2126	5624
1	2139	5625
1	2155	5626
1	2157	5627
1	2166	5628
1	2174	5629
1	2183	5630
1	2196	5631
1	2222	5632
1	2246	5633
1	2263	5634
1	2280	5635
1	2300	5636
1	2316	5637
1	2339	5638
1	2353	5639
1	2361	5640
1	2365	5641
1	2359	5642
1	2345	5643
1	2327	5644
1	2292	5645
1	2252	5646
1	2188	5647
1	2124	5648
1	2055	5649
1	1981	5650
1	1920	5651
1	1856	5652
1	1796	5653
1	1751	5654
1	1715	5655
1	1691	5656
1	1667	5657
1	1658	5658
1	1659	5659
1	1670	5660
1	1688	5661
1	1714	5662
1	1730	5663
1	1738	5664
1	1751	5665
1	1760	5666
1	1766	5667
1	1778	5668
1	1787	5669
1	1791	5670
1	1796	5671
1	1800	5672
1	1801	5673
1	1801	5674
1	1802	5675
1	1802	5676
1	1815	5677
1	1820	5678
1	1823	5679
1	1827	5680
1	1829	5681
1	1827	5682
1	1819	5683
1	1814	5684
1	1800	5685
1	1788	5686
1	1773	5687
1	1766	5688
1	1764	5689
1	1764	5690
1	1762	5691
1	1764	5692
1	1772	5693
1	1781	5694
1	1791	5695
1	1808	5696
1	1817	5697
1	1826	5698
1	1834	5699
1	1839	5700
1	1839	5701
1	1822	5702
1	1814	5703
1	1802	5704
1	1796	5705
1	1791	5706
1	1801	5707
1	1811	5708
1	1818	5709
1	1821	5710
1	1819	5711
1	1816	5712
1	1812	5713
1	1801	5714
1	1800	5715
1	1800	5716
1	1803	5717
1	1816	5718
1	1823	5719
1	1829	5720
1	1830	5721
1	1835	5722
1	1832	5723
1	1828	5724
1	1821	5725
1	1817	5726
1	1818	5727
1	1818	5728
1	1817	5729
1	1814	5730
1	1811	5731
1	1817	5732
1	1831	5733
1	1842	5734
1	1848	5735
1	1851	5736
1	1856	5737
1	1859	5738
1	1859	5739
1	1860	5740
1	1869	5741
1	1859	5742
1	1854	5743
1	1845	5744
1	1842	5745
1	1834	5746
1	1829	5747
1	1821	5748
1	1815	5749
1	1796	5750
1	1791	5751
1	1791	5752
1	1791	5753
1	1796	5754
1	1800	5755
1	1818	5756
1	1825	5757
1	1836	5758
1	1848	5759
1	1818	5780
1	1817	5781
1	1823	5782
1	1825	5783
1	1831	5784
1	1842	5785
1	1855	5786
1	1868	5787
1	1879	5788
1	1885	5789
1	1886	5790
1	1883	5791
1	1877	5792
1	1875	5793
1	1877	5794
1	1877	5795
1	1874	5796
1	1886	5797
1	1890	5798
1	1886	5799
1	1852	5760
1	1855	5761
1	1854	5762
1	1854	5763
1	1859	5764
1	1869	5765
1	1875	5766
1	1884	5767
1	1885	5768
1	1881	5769
1	1872	5770
1	1867	5771
1	1857	5772
1	1855	5773
1	1856	5774
1	1857	5775
1	1855	5776
1	1843	5777
1	1835	5778
1	1826	5779
1	1883	5800
1	1886	5801
1	1883	5802
1	1882	5803
1	1883	5804
1	1887	5805
1	1895	5806
1	1893	5807
1	1890	5808
1	1885	5809
1	1879	5810
1	1869	5811
1	1867	5812
1	1859	5813
1	1855	5814
1	1857	5815
1	1864	5816
1	1868	5817
1	1875	5818
1	1877	5819
1	1878	5820
1	1880	5821
1	1878	5822
1	1885	5823
1	1895	5824
1	1903	5825
1	1910	5826
1	1931	5827
1	1939	5828
1	1945	5829
1	1948	5830
1	1949	5831
1	1953	5832
1	1961	5833
1	1968	5834
1	1980	5835
1	1985	5836
1	1976	5837
1	1973	5838
1	1969	5839
1	1958	5840
1	1948	5841
1	1940	5842
1	1919	5843
1	1914	5844
1	1904	5845
1	1899	5846
1	1899	5847
1	1908	5848
1	1922	5849
1	1931	5850
1	1945	5851
1	1945	5852
1	1948	5853
1	1957	5854
1	1965	5855
1	1970	5856
1	1973	5857
1	1971	5858
1	1968	5859
1	1908	5880
1	1897	5881
1	1889	5882
1	1883	5883
1	1883	5884
1	1885	5885
1	1887	5886
1	1897	5887
1	1900	5888
1	1904	5889
1	1906	5890
1	1909	5891
1	1917	5892
1	1927	5893
1	1933	5894
1	1940	5895
1	1948	5896
1	1940	5897
1	1932	5898
1	1921	5899
1	1961	5860
1	1958	5861
1	1950	5862
1	1942	5863
1	1925	5864
1	1911	5865
1	1906	5866
1	1901	5867
1	1905	5868
1	1908	5869
1	1917	5870
1	1924	5871
1	1944	5872
1	1952	5873
1	1953	5874
1	1952	5875
1	1949	5876
1	1945	5877
1	1935	5878
1	1923	5879
1	1900	5900
1	1882	5901
1	1870	5902
1	1856	5903
1	1844	5904
1	1838	5905
1	1836	5906
1	1827	5907
1	1817	5908
1	1809	5909
1	1813	5910
1	1817	5911
1	1811	5912
1	1802	5913
1	1796	5914
1	1799	5915
1	1813	5916
1	1831	5917
1	1843	5918
1	1856	5919
1	1857	5920
1	1849	5921
1	1841	5922
1	1824	5923
1	1813	5924
1	1796	5925
1	1785	5926
1	1770	5927
1	1769	5928
1	1767	5929
1	1765	5930
1	1764	5931
1	1765	5932
1	1764	5933
1	1762	5934
1	1756	5935
1	1755	5936
1	1754	5937
1	1756	5938
1	1756	5939
1	1760	5940
1	1759	5941
1	1757	5942
1	1755	5943
1	1752	5944
1	1750	5945
1	1749	5946
1	1751	5947
1	1751	5948
1	1754	5949
1	1756	5950
1	1762	5951
1	1755	5952
1	1747	5953
1	1741	5954
1	1740	5955
1	1741	5956
1	1738	5957
1	1730	5958
1	1717	5959
1	1707	5960
1	1692	5961
1	1688	5962
1	1682	5963
1	1679	5964
1	1675	5965
1	1674	5966
1	1678	5967
1	1682	5968
1	1687	5969
1	1692	5970
1	1701	5971
1	1704	5972
1	1707	5973
1	1710	5974
1	1710	5975
1	1701	5976
1	1697	5977
1	1682	5978
1	1668	5979
1	1728	6000
1	1730	6001
1	1731	6002
1	1733	6003
1	1733	6004
1	1737	6005
1	1738	6006
1	1746	6007
1	1746	6008
1	1751	6009
1	1755	6010
1	1764	6011
1	1772	6012
1	1776	6013
1	1778	6014
1	1773	6015
1	1766	6016
1	1760	6017
1	1759	6018
1	1757	6019
1	1661	5980
1	1660	5981
1	1665	5982
1	1672	5983
1	1681	5984
1	1691	5985
1	1711	5986
1	1718	5987
1	1736	5988
1	1742	5989
1	1747	5990
1	1747	5991
1	1751	5992
1	1751	5993
1	1749	5994
1	1742	5995
1	1737	5996
1	1724	5997
1	1722	5998
1	1724	5999
1	1751	6020
1	1739	6021
1	1738	6022
1	1731	6023
1	1727	6024
1	1726	6025
1	1726	6026
1	1726	6027
1	1729	6028
1	1729	6029
1	1734	6030
1	1738	6031
1	1737	6032
1	1733	6033
1	1724	6034
1	1715	6035
1	1708	6036
1	1704	6037
1	1697	6038
1	1686	6039
1	1683	6040
1	1688	6041
1	1685	6042
1	1687	6043
1	1702	6044
1	1719	6045
1	1734	6046
1	1743	6047
1	1742	6048
1	1738	6049
1	1729	6050
1	1727	6051
1	1732	6052
1	1738	6053
1	1752	6054
1	1764	6055
1	1780	6056
1	1782	6057
1	1774	6058
1	1766	6059
1	1759	6060
1	1751	6061
1	1738	6062
1	1731	6063
1	1729	6064
1	1733	6065
1	1738	6066
1	1751	6067
1	1759	6068
1	1764	6069
1	1764	6070
1	1760	6071
1	1755	6072
1	1752	6073
1	1749	6074
1	1746	6075
1	1744	6076
1	1736	6077
1	1731	6078
1	1731	6079
1	1690	6100
1	1688	6101
1	1690	6102
1	1696	6103
1	1708	6104
1	1723	6105
1	1738	6106
1	1744	6107
1	1749	6108
1	1751	6109
1	1751	6110
1	1754	6111
1	1765	6112
1	1777	6113
1	1785	6114
1	1785	6115
1	1778	6116
1	1767	6117
1	1756	6118
1	1738	6119
1	1737	6080
1	1741	6081
1	1754	6082
1	1760	6083
1	1765	6084
1	1766	6085
1	1772	6086
1	1778	6087
1	1789	6088
1	1795	6089
1	1796	6090
1	1791	6091
1	1781	6092
1	1772	6093
1	1759	6094
1	1742	6095
1	1726	6096
1	1718	6097
1	1706	6098
1	1697	6099
1	1718	6120
1	1705	6121
1	1686	6122
1	1682	6123
1	1682	6124
1	1684	6125
1	1687	6126
1	1697	6127
1	1699	6128
1	1708	6129
1	1719	6130
1	1738	6131
1	1755	6132
1	1766	6133
1	1769	6134
1	1773	6135
1	1773	6136
1	1768	6137
1	1766	6138
1	1766	6139
1	1767	6140
1	1766	6141
1	1775	6142
1	1764	6143
1	1765	6144
1	1764	6145
1	1764	6146
1	1765	6147
1	1764	6148
1	1762	6149
1	1752	6150
1	1748	6151
1	1738	6152
1	1734	6153
1	1731	6154
1	1718	6155
1	1708	6156
1	1690	6157
1	1681	6158
1	1685	6159
1	1691	6160
1	1701	6161
1	1710	6162
1	1720	6163
1	1731	6164
1	1742	6165
1	1751	6166
1	1749	6167
1	1751	6168
1	1747	6169
1	1743	6170
1	1741	6171
1	1738	6172
1	1730	6173
1	1720	6174
1	1716	6175
1	1715	6176
1	1713	6177
1	1710	6178
1	1710	6179
1	1708	6200
1	1715	6201
1	1733	6202
1	1738	6203
1	1746	6204
1	1750	6205
1	1749	6206
1	1744	6207
1	1747	6208
1	1753	6209
1	1760	6210
1	1764	6211
1	1764	6212
1	1764	6213
1	1764	6214
1	1757	6215
1	1751	6216
1	1754	6217
1	1752	6218
1	1754	6219
1	1706	6180
1	1704	6181
1	1700	6182
1	1698	6183
1	1695	6184
1	1691	6185
1	1688	6186
1	1701	6187
1	1712	6188
1	1722	6189
1	1731	6190
1	1737	6191
1	1737	6192
1	1735	6193
1	1729	6194
1	1719	6195
1	1713	6196
1	1708	6197
1	1708	6198
1	1703	6199
1	1755	6220
1	1759	6221
1	1759	6222
1	1752	6223
1	1744	6224
1	1733	6225
1	1715	6226
1	1699	6227
1	1689	6228
1	1686	6229
1	1688	6230
1	1692	6231
1	1696	6232
1	1687	6233
1	1683	6234
1	1681	6235
1	1683	6236
1	1687	6237
1	1699	6238
1	1715	6239
1	1760	6260
1	1754	6261
1	1750	6262
1	1740	6263
1	1738	6264
1	1737	6265
1	1737	6266
1	1736	6267
1	1737	6268
1	1741	6269
1	1751	6270
1	1757	6271
1	1762	6272
1	1767	6273
1	1777	6274
1	1786	6275
1	1791	6276
1	1802	6277
1	1809	6278
1	1803	6279
1	1760	6300
1	1759	6301
1	1761	6302
1	1764	6303
1	1769	6304
1	1778	6305
1	1790	6306
1	1802	6307
1	1807	6308
1	1808	6309
1	1798	6310
1	1791	6311
1	1787	6312
1	1775	6313
1	1766	6314
1	1759	6315
1	1749	6316
1	1738	6317
1	1734	6318
1	1729	6319
1	1796	6280
1	1791	6281
1	1788	6282
1	1779	6283
1	1765	6284
1	1757	6285
1	1747	6286
1	1734	6287
1	1727	6288
1	1729	6289
1	1736	6290
1	1749	6291
1	1765	6292
1	1776	6293
1	1778	6294
1	1779	6295
1	1779	6296
1	1770	6297
1	1765	6298
1	1762	6299
1	1729	6240
1	1749	6241
1	1760	6242
1	1764	6243
1	1755	6244
1	1744	6245
1	1738	6246
1	1737	6247
1	1734	6248
1	1733	6249
1	1728	6250
1	1738	6251
1	1742	6252
1	1751	6253
1	1752	6254
1	1759	6255
1	1767	6256
1	1770	6257
1	1769	6258
1	1766	6259
1	1728	6320
1	1728	6321
1	1738	6322
1	1739	6323
1	1744	6324
1	1760	6325
1	1773	6326
1	1778	6327
1	1782	6328
1	1776	6329
1	1764	6330
1	1750	6331
1	1719	6332
1	1699	6333
1	1682	6334
1	1664	6335
1	1660	6336
1	1671	6337
1	1683	6338
1	1694	6339
1	1707	6340
1	1733	6341
1	1742	6342
1	1749	6343
1	1746	6344
1	1738	6345
1	1725	6346
1	1718	6347
1	1712	6348
1	1712	6349
1	1708	6350
1	1703	6351
1	1697	6352
1	1692	6353
1	1691	6354
1	1690	6355
1	1700	6356
1	1699	6357
1	1698	6358
1	1698	6359
1	1701	6360
1	1710	6361
1	1713	6362
1	1721	6363
1	1723	6364
1	1719	6365
1	1711	6366
1	1710	6367
1	1701	6368
1	1697	6369
1	1687	6370
1	1680	6371
1	1670	6372
1	1674	6373
1	1684	6374
1	1698	6375
1	1714	6376
1	1721	6377
1	1728	6378
1	1735	6379
1	1738	6380
1	1739	6381
1	1739	6382
1	1738	6383
1	1738	6384
1	1739	6385
1	1744	6386
1	1751	6387
1	1751	6388
1	1751	6389
1	1751	6390
1	1744	6391
1	1727	6392
1	1712	6393
1	1702	6394
1	1690	6395
1	1678	6396
1	1671	6397
1	1665	6398
1	1662	6399
1	1665	6400
1	1665	6401
1	1669	6402
1	1674	6403
1	1685	6404
1	1697	6405
1	1708	6406
1	1719	6407
1	1739	6408
1	1765	6409
1	1791	6410
1	1817	6411
1	1836	6412
1	1844	6413
1	1856	6414
1	1867	6415
1	1881	6416
1	1899	6417
1	1922	6418
1	1948	6419
1	2310	6440
1	2312	6441
1	2309	6442
1	2292	6443
1	2260	6444
1	2218	6445
1	2161	6446
1	2092	6447
1	2015	6448
1	1936	6449
1	1861	6450
1	1790	6451
1	1719	6452
1	1672	6453
1	1635	6454
1	1609	6455
1	1593	6456
1	1584	6457
1	1584	6458
1	1585	6459
1	1968	6420
1	1983	6421
1	1988	6422
1	2003	6423
1	2028	6424
1	2054	6425
1	2079	6426
1	2111	6427
1	2134	6428
1	2165	6429
1	2192	6430
1	2219	6431
1	2246	6432
1	2266	6433
1	2283	6434
1	2294	6435
1	2305	6436
1	2305	6437
1	2307	6438
1	2309	6439
1	1599	6460
1	1609	6461
1	1625	6462
1	1641	6463
1	1660	6464
1	1686	6465
1	1711	6466
1	1726	6467
1	1742	6468
1	1757	6469
1	1764	6470
1	1765	6471
1	1767	6472
1	1755	6473
1	1739	6474
1	1726	6475
1	1718	6476
1	1715	6477
1	1712	6478
1	1705	6479
1	1694	6480
1	1685	6481
1	1672	6482
1	1672	6483
1	1672	6484
1	1674	6485
1	1679	6486
1	1686	6487
1	1691	6488
1	1697	6489
1	1704	6490
1	1712	6491
1	1722	6492
1	1731	6493
1	1747	6494
1	1763	6495
1	1773	6496
1	1773	6497
1	1767	6498
1	1766	6499
1	1764	6500
1	1763	6501
1	1762	6502
1	1756	6503
1	1751	6504
1	1741	6505
1	1736	6506
1	1730	6507
1	1727	6508
1	1721	6509
1	1717	6510
1	1716	6511
1	1710	6512
1	1701	6513
1	1703	6514
1	1700	6515
1	1700	6516
1	1705	6517
1	1705	6518
1	1711	6519
1	1721	6520
1	1738	6521
1	1750	6522
1	1756	6523
1	1759	6524
1	1761	6525
1	1765	6526
1	1764	6527
1	1764	6528
1	1760	6529
1	1751	6530
1	1739	6531
1	1733	6532
1	1721	6533
1	1715	6534
1	1714	6535
1	1719	6536
1	1725	6537
1	1738	6538
1	1751	6539
1	1754	6540
1	1762	6541
1	1769	6542
1	1773	6543
1	1780	6544
1	1789	6545
1	1790	6546
1	1791	6547
1	1785	6548
1	1782	6549
1	1778	6550
1	1782	6551
1	1774	6552
1	1762	6553
1	1754	6554
1	1751	6555
1	1744	6556
1	1738	6557
1	1739	6558
1	1749	6559
1	1751	6560
1	1749	6561
1	1749	6562
1	1742	6563
1	1743	6564
1	1750	6565
1	1760	6566
1	1769	6567
1	1775	6568
1	1772	6569
1	1769	6570
1	1764	6571
1	1754	6572
1	1742	6573
1	1734	6574
1	1724	6575
1	1715	6576
1	1715	6577
1	1708	6578
1	1706	6579
1	1714	6580
1	1730	6581
1	1749	6582
1	1764	6583
1	1773	6584
1	1782	6585
1	1791	6586
1	1796	6587
1	1809	6588
1	1809	6589
1	1799	6590
1	1796	6591
1	1796	6592
1	1785	6593
1	1765	6594
1	1750	6595
1	1746	6596
1	1751	6597
1	1759	6598
1	1773	6599
1	1789	6600
1	1803	6601
1	1823	6602
1	1842	6603
1	1857	6604
1	1869	6605
1	1881	6606
1	1893	6607
1	1893	6608
1	1888	6609
1	1880	6610
1	1869	6611
1	1859	6612
1	1850	6613
1	1837	6614
1	1824	6615
1	1816	6616
1	1796	6617
1	1792	6618
1	1792	6619
1	1791	6620
1	1800	6621
1	1822	6622
1	1843	6623
1	1857	6624
1	1867	6625
1	1859	6626
1	1849	6627
1	1834	6628
1	1817	6629
1	1793	6630
1	1776	6631
1	1760	6632
1	1752	6633
1	1750	6634
1	1751	6635
1	1751	6636
1	1759	6637
1	1764	6638
1	1764	6639
1	1890	6660
1	1879	6661
1	1863	6662
1	1855	6663
1	1845	6664
1	1839	6665
1	1832	6666
1	1835	6667
1	1841	6668
1	1848	6669
1	1856	6670
1	1858	6671
1	1860	6672
1	1858	6673
1	1855	6674
1	1844	6675
1	1836	6676
1	1822	6677
1	1817	6678
1	1817	6679
1	1762	6640
1	1773	6641
1	1775	6642
1	1783	6643
1	1794	6644
1	1814	6645
1	1828	6646
1	1842	6647
1	1851	6648
1	1850	6649
1	1845	6650
1	1843	6651
1	1844	6652
1	1854	6653
1	1867	6654
1	1873	6655
1	1891	6656
1	1895	6657
1	1897	6658
1	1895	6659
1	1814	6680
1	1818	6681
1	1841	6682
1	1857	6683
1	1872	6684
1	1880	6685
1	1878	6686
1	1869	6687
1	1852	6688
1	1835	6689
1	1823	6690
1	1817	6691
1	1801	6692
1	1787	6693
1	1764	6694
1	1743	6695
1	1729	6696
1	1723	6697
1	1717	6698
1	1706	6699
1	1711	6700
1	1713	6701
1	1713	6702
1	1712	6703
1	1707	6704
1	1698	6705
1	1692	6706
1	1685	6707
1	1681	6708
1	1681	6709
1	1679	6710
1	1680	6711
1	1686	6712
1	1686	6713
1	1688	6714
1	1695	6715
1	1701	6716
1	1712	6717
1	1723	6718
1	1731	6719
1	1736	6720
1	1738	6721
1	1738	6722
1	1737	6723
1	1738	6724
1	1738	6725
1	1738	6726
1	1737	6727
1	1726	6728
1	1714	6729
1	1703	6730
1	1691	6731
1	1681	6732
1	1672	6733
1	1662	6734
1	1660	6735
1	1662	6736
1	1664	6737
1	1672	6738
1	1673	6739
1	1667	6740
1	1660	6741
1	1656	6742
1	1638	6743
1	1611	6744
1	1603	6745
1	1584	6746
1	1575	6747
1	1567	6748
1	1566	6749
1	1572	6750
1	1581	6751
1	1586	6752
1	1595	6753
1	1607	6754
1	1608	6755
1	1611	6756
1	1608	6757
1	1606	6758
1	1596	6759
1	1590	6760
1	1584	6761
1	1584	6762
1	1589	6763
1	1590	6764
1	1593	6765
1	1594	6766
1	1591	6767
1	1590	6768
1	1590	6769
1	1587	6770
1	1585	6771
1	1593	6772
1	1594	6773
1	1595	6774
1	1598	6775
1	1600	6776
1	1605	6777
1	1607	6778
1	1607	6779
1	1609	6780
1	1618	6781
1	1618	6782
1	1620	6783
1	1623	6784
1	1625	6785
1	1628	6786
1	1634	6787
1	1634	6788
1	1629	6789
1	1625	6790
1	1625	6791
1	1629	6792
1	1634	6793
1	1639	6794
1	1647	6795
1	1657	6796
1	1654	6797
1	1655	6798
1	1656	6799
1	1656	6800
1	1656	6801
1	1652	6802
1	1643	6803
1	1626	6804
1	1608	6805
1	1590	6806
1	1575	6807
1	1566	6808
1	1563	6809
1	1564	6810
1	1572	6811
1	1574	6812
1	1581	6813
1	1594	6814
1	1610	6815
1	1634	6816
1	1660	6817
1	1677	6818
1	1691	6819
1	1700	6820
1	1697	6821
1	1686	6822
1	1670	6823
1	1650	6824
1	1633	6825
1	1615	6826
1	1597	6827
1	1593	6828
1	1593	6829
1	1593	6830
1	1595	6831
1	1607	6832
1	1621	6833
1	1641	6834
1	1659	6835
1	1674	6836
1	1685	6837
1	1693	6838
1	1697	6839
1	1694	6840
1	1688	6841
1	1682	6842
1	1668	6843
1	1662	6844
1	1660	6845
1	1661	6846
1	1664	6847
1	1662	6848
1	1658	6849
1	1654	6850
1	1661	6851
1	1661	6852
1	1660	6853
1	1656	6854
1	1645	6855
1	1638	6856
1	1626	6857
1	1618	6858
1	1610	6859
1	1606	6860
1	1598	6861
1	1595	6862
1	1590	6863
1	1589	6864
1	1592	6865
1	1595	6866
1	1599	6867
1	1607	6868
1	1616	6869
1	1625	6870
1	1637	6871
1	1651	6872
1	1662	6873
1	1678	6874
1	1687	6875
1	1690	6876
1	1697	6877
1	1690	6878
1	1687	6879
1	1687	6880
1	1686	6881
1	1686	6882
1	1691	6883
1	1698	6884
1	1705	6885
1	1708	6886
1	1705	6887
1	1699	6888
1	1692	6889
1	1679	6890
1	1659	6891
1	1638	6892
1	1610	6893
1	1586	6894
1	1569	6895
1	1566	6896
1	1573	6897
1	1583	6898
1	1599	6899
1	1613	6900
1	1629	6901
1	1647	6902
1	1670	6903
1	1686	6904
1	1697	6905
1	1710	6906
1	1722	6907
1	1721	6908
1	1712	6909
1	1703	6910
1	1691	6911
1	1676	6912
1	1660	6913
1	1647	6914
1	1636	6915
1	1631	6916
1	1619	6917
1	1607	6918
1	1607	6919
1	1602	6940
1	1617	6941
1	1619	6942
1	1628	6943
1	1638	6944
1	1651	6945
1	1656	6946
1	1660	6947
1	1660	6948
1	1659	6949
1	1656	6950
1	1649	6951
1	1646	6952
1	1646	6953
1	1646	6954
1	1646	6955
1	1645	6956
1	1634	6957
1	1620	6958
1	1605	6959
1	1606	6920
1	1608	6921
1	1624	6922
1	1634	6923
1	1643	6924
1	1660	6925
1	1674	6926
1	1682	6927
1	1682	6928
1	1676	6929
1	1661	6930
1	1655	6931
1	1639	6932
1	1629	6933
1	1620	6934
1	1608	6935
1	1603	6936
1	1602	6937
1	1598	6938
1	1600	6939
1	1594	6960
1	1591	6961
1	1594	6962
1	1607	6963
1	1629	6964
1	1647	6965
1	1665	6966
1	1686	6967
1	1696	6968
1	1703	6969
1	1711	6970
1	1712	6971
1	1712	6972
1	1705	6973
1	1694	6974
1	1684	6975
1	1680	6976
1	1671	6977
1	1661	6978
1	1658	6979
1	1641	6980
1	1632	6981
1	1626	6982
1	1619	6983
1	1608	6984
1	1605	6985
1	1602	6986
1	1602	6987
1	1602	6988
1	1607	6989
1	1608	6990
1	1607	6991
1	1605	6992
1	1606	6993
1	1609	6994
1	1613	6995
1	1620	6996
1	1634	6997
1	1636	6998
1	1647	6999
1	1659	7000
1	1667	7001
1	1672	7002
1	1676	7003
1	1679	7004
1	1670	7005
1	1661	7006
1	1653	7007
1	1647	7008
1	1646	7009
1	1639	7010
1	1629	7011
1	1623	7012
1	1613	7013
1	1608	7014
1	1608	7015
1	1607	7016
1	1609	7017
1	1617	7018
1	1626	7019
1	1634	7020
1	1636	7021
1	1634	7022
1	1625	7023
1	1620	7024
1	1621	7025
1	1633	7026
1	1647	7027
1	1657	7028
1	1661	7029
1	1662	7030
1	1664	7031
1	1660	7032
1	1660	7033
1	1659	7034
1	1661	7035
1	1665	7036
1	1661	7037
1	1659	7038
1	1652	7039
1	1643	7040
1	1638	7041
1	1634	7042
1	1633	7043
1	1626	7044
1	1629	7045
1	1625	7046
1	1623	7047
1	1622	7048
1	1620	7049
1	1621	7050
1	1625	7051
1	1620	7052
1	1618	7053
1	1619	7054
1	1623	7055
1	1634	7056
1	1647	7057
1	1646	7058
1	1641	7059
1	1634	7060
1	1629	7061
1	1619	7062
1	1608	7063
1	1597	7064
1	1583	7065
1	1576	7066
1	1569	7067
1	1571	7068
1	1581	7069
1	1593	7070
1	1600	7071
1	1610	7072
1	1611	7073
1	1618	7074
1	1626	7075
1	1643	7076
1	1657	7077
1	1662	7078
1	1668	7079
1	1652	7100
1	1648	7101
1	1649	7102
1	1647	7103
1	1647	7104
1	1651	7105
1	1657	7106
1	1662	7107
1	1672	7108
1	1682	7109
1	1691	7110
1	1701	7111
1	1699	7112
1	1694	7113
1	1686	7114
1	1674	7115
1	1664	7116
1	1665	7117
1	1661	7118
1	1660	7119
1	1674	7080
1	1688	7081
1	1697	7082
1	1699	7083
1	1697	7084
1	1687	7085
1	1683	7086
1	1686	7087
1	1683	7088
1	1672	7089
1	1661	7090
1	1654	7091
1	1644	7092
1	1642	7093
1	1645	7094
1	1649	7095
1	1652	7096
1	1647	7097
1	1651	7098
1	1653	7099
1	1656	7120
1	1647	7121
1	1643	7122
1	1638	7123
1	1638	7124
1	1642	7125
1	1647	7126
1	1649	7127
1	1658	7128
1	1674	7129
1	1684	7130
1	1688	7131
1	1694	7132
1	1694	7133
1	1694	7134
1	1697	7135
1	1697	7136
1	1698	7137
1	1700	7138
1	1700	7139
1	1698	7140
1	1699	7141
1	1701	7142
1	1700	7143
1	1690	7144
1	1674	7145
1	1657	7146
1	1645	7147
1	1634	7148
1	1616	7149
1	1608	7150
1	1615	7151
1	1624	7152
1	1631	7153
1	1634	7154
1	1638	7155
1	1642	7156
1	1638	7157
1	1639	7158
1	1641	7159
1	1636	7160
1	1634	7161
1	1638	7162
1	1643	7163
1	1647	7164
1	1654	7165
1	1659	7166
1	1660	7167
1	1658	7168
1	1651	7169
1	1647	7170
1	1637	7171
1	1624	7172
1	1615	7173
1	1611	7174
1	1607	7175
1	1602	7176
1	1607	7177
1	1613	7178
1	1621	7179
1	1627	7180
1	1631	7181
1	1631	7182
1	1633	7183
1	1636	7184
1	1639	7185
1	1638	7186
1	1625	7187
1	1617	7188
1	1613	7189
1	1607	7190
1	1595	7191
1	1592	7192
1	1589	7193
1	1590	7194
1	1596	7195
1	1603	7196
1	1607	7197
1	1602	7198
1	1597	7199
1	1600	7200
1	1606	7201
1	1611	7202
1	1618	7203
1	1623	7204
1	1621	7205
1	1620	7206
1	1629	7207
1	1634	7208
1	1636	7209
1	1638	7210
1	1638	7211
1	1635	7212
1	1630	7213
1	1622	7214
1	1616	7215
1	1607	7216
1	1593	7217
1	1577	7218
1	1564	7219
1	1556	7220
1	1551	7221
1	1554	7222
1	1557	7223
1	1572	7224
1	1596	7225
1	1625	7226
1	1652	7227
1	1679	7228
1	1698	7229
1	1712	7230
1	1712	7231
1	1700	7232
1	1688	7233
1	1672	7234
1	1654	7235
1	1634	7236
1	1634	7237
1	1633	7238
1	1635	7239
1	1631	7240
1	1634	7241
1	1634	7242
1	1645	7243
1	1659	7244
1	1674	7245
1	1692	7246
1	1707	7247
1	1716	7248
1	1737	7249
1	1755	7250
1	1783	7251
1	1821	7252
1	1857	7253
1	1893	7254
1	1922	7255
1	1955	7256
1	1973	7257
1	1982	7258
1	1991	7259
1	2003	7260
1	2025	7261
1	2043	7262
1	2066	7263
1	2102	7264
1	2129	7265
1	2156	7266
1	2184	7267
1	2206	7268
1	2228	7269
1	2250	7270
1	2274	7271
1	2297	7272
1	2318	7273
1	2336	7274
1	2347	7275
1	2350	7276
1	2328	7277
1	2294	7278
1	2246	7279
1	2174	7280
1	2094	7281
1	2011	7282
1	1917	7283
1	1828	7284
1	1738	7285
1	1667	7286
1	1610	7287
1	1567	7288
1	1538	7289
1	1518	7290
1	1508	7291
1	1516	7292
1	1532	7293
1	1552	7294
1	1566	7295
1	1584	7296
1	1606	7297
1	1616	7298
1	1633	7299
1	1641	7300
1	1647	7301
1	1649	7302
1	1648	7303
1	1652	7304
1	1658	7305
1	1661	7306
1	1660	7307
1	1662	7308
1	1664	7309
1	1660	7310
1	1658	7311
1	1656	7312
1	1646	7313
1	1635	7314
1	1623	7315
1	1608	7316
1	1595	7317
1	1580	7318
1	1562	7319
1	1554	7320
1	1550	7321
1	1551	7322
1	1554	7323
1	1555	7324
1	1563	7325
1	1570	7326
1	1582	7327
1	1592	7328
1	1598	7329
1	1604	7330
1	1613	7331
1	1629	7332
1	1638	7333
1	1650	7334
1	1661	7335
1	1662	7336
1	1654	7337
1	1647	7338
1	1645	7339
1	1644	7340
1	1652	7341
1	1661	7342
1	1662	7343
1	1657	7344
1	1656	7345
1	1639	7346
1	1634	7347
1	1629	7348
1	1633	7349
1	1634	7350
1	1634	7351
1	1630	7352
1	1615	7353
1	1598	7354
1	1582	7355
1	1572	7356
1	1566	7357
1	1562	7358
1	1564	7359
1	1577	7360
1	1582	7361
1	1594	7362
1	1608	7363
1	1620	7364
1	1628	7365
1	1632	7366
1	1629	7367
1	1626	7368
1	1620	7369
1	1610	7370
1	1606	7371
1	1605	7372
1	1595	7373
1	1594	7374
1	1605	7375
1	1620	7376
1	1643	7377
1	1660	7378
1	1674	7379
1	1683	7380
1	1687	7381
1	1686	7382
1	1684	7383
1	1680	7384
1	1676	7385
1	1669	7386
1	1669	7387
1	1661	7388
1	1652	7389
1	1644	7390
1	1635	7391
1	1634	7392
1	1634	7393
1	1628	7394
1	1623	7395
1	1616	7396
1	1607	7397
1	1602	7398
1	1596	7399
1	1599	7400
1	1607	7401
1	1620	7402
1	1630	7403
1	1638	7404
1	1643	7405
1	1649	7406
1	1659	7407
1	1669	7408
1	1685	7409
1	1695	7410
1	1703	7411
1	1707	7412
1	1718	7413
1	1721	7414
1	1724	7415
1	1713	7416
1	1710	7417
1	1694	7418
1	1686	7419
1	1682	7420
1	1674	7421
1	1668	7422
1	1661	7423
1	1655	7424
1	1641	7425
1	1629	7426
1	1607	7427
1	1600	7428
1	1594	7429
1	1598	7430
1	1603	7431
1	1616	7432
1	1623	7433
1	1634	7434
1	1647	7435
1	1660	7436
1	1673	7437
1	1687	7438
1	1704	7439
1	1705	7440
1	1705	7441
1	1698	7442
1	1688	7443
1	1676	7444
1	1662	7445
1	1657	7446
1	1661	7447
1	1673	7448
1	1687	7449
1	1703	7450
1	1731	7451
1	1751	7452
1	1766	7453
1	1773	7454
1	1770	7455
1	1764	7456
1	1740	7457
1	1715	7458
1	1689	7459
1	1675	7460
1	1664	7461
1	1669	7462
1	1675	7463
1	1688	7464
1	1706	7465
1	1722	7466
1	1734	7467
1	1738	7468
1	1739	7469
1	1738	7470
1	1743	7471
1	1747	7472
1	1751	7473
1	1752	7474
1	1751	7475
1	1744	7476
1	1746	7477
1	1740	7478
1	1737	7479
1	1738	7500
1	1734	7501
1	1728	7502
1	1720	7503
1	1714	7504
1	1710	7505
1	1705	7506
1	1712	7507
1	1719	7508
1	1733	7509
1	1744	7510
1	1752	7511
1	1760	7512
1	1762	7513
1	1760	7514
1	1754	7515
1	1746	7516
1	1727	7517
1	1710	7518
1	1698	7519
1	1733	7480
1	1729	7481
1	1731	7482
1	1727	7483
1	1724	7484
1	1715	7485
1	1710	7486
1	1708	7487
1	1712	7488
1	1724	7489
1	1737	7490
1	1743	7491
1	1754	7492
1	1757	7493
1	1760	7494
1	1754	7495
1	1751	7496
1	1743	7497
1	1742	7498
1	1742	7499
1	1687	7520
1	1683	7521
1	1686	7522
1	1686	7523
1	1685	7524
1	1680	7525
1	1676	7526
1	1669	7527
1	1661	7528
1	1655	7529
1	1647	7530
1	1638	7531
1	1626	7532
1	1621	7533
1	1625	7534
1	1629	7535
1	1634	7536
1	1643	7537
1	1645	7538
1	1648	7539
1	1658	7540
1	1663	7541
1	1670	7542
1	1674	7543
1	1674	7544
1	1670	7545
1	1664	7546
1	1656	7547
1	1634	7548
1	1611	7549
1	1585	7550
1	1560	7551
1	1544	7552
1	1539	7553
1	1541	7554
1	1543	7555
1	1557	7556
1	1567	7557
1	1566	7558
1	1556	7559
1	1552	7560
1	1544	7561
1	1528	7562
1	1510	7563
1	1498	7564
1	1493	7565
1	1502	7566
1	1512	7567
1	1515	7568
1	1516	7569
1	1517	7570
1	1520	7571
1	1529	7572
1	1535	7573
1	1540	7574
1	1542	7575
1	1539	7576
1	1529	7577
1	1529	7578
1	1526	7579
1	1524	7580
1	1529	7581
1	1531	7582
1	1529	7583
1	1518	7584
1	1507	7585
1	1503	7586
1	1499	7587
1	1490	7588
1	1482	7589
1	1474	7590
1	1463	7591
1	1451	7592
1	1447	7593
1	1450	7594
1	1459	7595
1	1469	7596
1	1490	7597
1	1502	7598
1	1503	7599
1	1499	7600
1	1492	7601
1	1484	7602
1	1476	7603
1	1476	7604
1	1480	7605
1	1489	7606
1	1492	7607
1	1499	7608
1	1503	7609
1	1505	7610
1	1508	7611
1	1516	7612
1	1524	7613
1	1529	7614
1	1529	7615
1	1526	7616
1	1524	7617
1	1526	7618
1	1517	7619
1	1510	7620
1	1504	7621
1	1494	7622
1	1490	7623
1	1487	7624
1	1481	7625
1	1475	7626
1	1474	7627
1	1472	7628
1	1474	7629
1	1477	7630
1	1485	7631
1	1494	7632
1	1503	7633
1	1514	7634
1	1526	7635
1	1533	7636
1	1529	7637
1	1517	7638
1	1504	7639
1	1495	7640
1	1490	7641
1	1495	7642
1	1495	7643
1	1488	7644
1	1490	7645
1	1494	7646
1	1503	7647
1	1512	7648
1	1521	7649
1	1529	7650
1	1533	7651
1	1530	7652
1	1530	7653
1	1528	7654
1	1526	7655
1	1518	7656
1	1512	7657
1	1503	7658
1	1489	7659
1	1472	7660
1	1454	7661
1	1449	7662
1	1452	7663
1	1464	7664
1	1476	7665
1	1490	7666
1	1500	7667
1	1513	7668
1	1526	7669
1	1536	7670
1	1542	7671
1	1551	7672
1	1555	7673
1	1561	7674
1	1566	7675
1	1567	7676
1	1574	7677
1	1579	7678
1	1581	7679
1	1581	7680
1	1573	7681
1	1555	7682
1	1542	7683
1	1535	7684
1	1529	7685
1	1528	7686
1	1537	7687
1	1536	7688
1	1533	7689
1	1529	7690
1	1528	7691
1	1526	7692
1	1524	7693
1	1523	7694
1	1525	7695
1	1521	7696
1	1517	7697
1	1528	7698
1	1542	7699
1	1557	7700
1	1571	7701
1	1583	7702
1	1586	7703
1	1587	7704
1	1580	7705
1	1570	7706
1	1563	7707
1	1563	7708
1	1562	7709
1	1555	7710
1	1553	7711
1	1541	7712
1	1535	7713
1	1531	7714
1	1528	7715
1	1519	7716
1	1521	7717
1	1520	7718
1	1525	7719
1	1534	7720
1	1542	7721
1	1549	7722
1	1547	7723
1	1543	7724
1	1540	7725
1	1538	7726
1	1530	7727
1	1529	7728
1	1529	7729
1	1526	7730
1	1529	7731
1	1542	7732
1	1552	7733
1	1563	7734
1	1574	7735
1	1584	7736
1	1593	7737
1	1593	7738
1	1589	7739
1	1578	7740
1	1566	7741
1	1554	7742
1	1543	7743
1	1537	7744
1	1531	7745
1	1530	7746
1	1536	7747
1	1541	7748
1	1545	7749
1	1551	7750
1	1558	7751
1	1559	7752
1	1559	7753
1	1559	7754
1	1557	7755
1	1557	7756
1	1553	7757
1	1553	7758
1	1550	7759
1	1549	7760
1	1553	7761
1	1563	7762
1	1577	7763
1	1589	7764
1	1592	7765
1	1581	7766
1	1562	7767
1	1547	7768
1	1536	7769
1	1530	7770
1	1530	7771
1	1520	7772
1	1513	7773
1	1508	7774
1	1505	7775
1	1508	7776
1	1519	7777
1	1524	7778
1	1529	7779
1	1503	7800
1	1494	7801
1	1497	7802
1	1499	7803
1	1503	7804
1	1514	7805
1	1533	7806
1	1555	7807
1	1566	7808
1	1571	7809
1	1570	7810
1	1568	7811
1	1568	7812
1	1572	7813
1	1573	7814
1	1575	7815
1	1579	7816
1	1579	7817
1	1581	7818
1	1587	7819
1	1535	7780
1	1540	7781
1	1548	7782
1	1559	7783
1	1576	7784
1	1585	7785
1	1595	7786
1	1594	7787
1	1594	7788
1	1591	7789
1	1584	7790
1	1581	7791
1	1581	7792
1	1571	7793
1	1563	7794
1	1555	7795
1	1551	7796
1	1546	7797
1	1533	7798
1	1521	7799
1	1593	7820
1	1593	7821
1	1591	7822
1	1583	7823
1	1577	7824
1	1574	7825
1	1574	7826
1	1573	7827
1	1571	7828
1	1571	7829
1	1576	7830
1	1585	7831
1	1590	7832
1	1602	7833
1	1607	7834
1	1610	7835
1	1609	7836
1	1613	7837
1	1613	7838
1	1612	7839
1	1557	7860
1	1559	7861
1	1557	7862
1	1567	7863
1	1580	7864
1	1592	7865
1	1600	7866
1	1607	7867
1	1607	7868
1	1602	7869
1	1597	7870
1	1598	7871
1	1600	7872
1	1598	7873
1	1595	7874
1	1592	7875
1	1592	7876
1	1589	7877
1	1590	7878
1	1585	7879
1	1609	7840
1	1597	7841
1	1592	7842
1	1581	7843
1	1568	7844
1	1556	7845
1	1547	7846
1	1543	7847
1	1537	7848
1	1538	7849
1	1539	7850
1	1546	7851
1	1555	7852
1	1568	7853
1	1574	7854
1	1579	7855
1	1581	7856
1	1571	7857
1	1561	7858
1	1557	7859
1	1581	7880
1	1574	7881
1	1569	7882
1	1563	7883
1	1561	7884
1	1560	7885
1	1562	7886
1	1566	7887
1	1571	7888
1	1577	7889
1	1580	7890
1	1584	7891
1	1585	7892
1	1590	7893
1	1597	7894
1	1604	7895
1	1615	7896
1	1630	7897
1	1636	7898
1	1638	7899
1	1636	7900
1	1634	7901
1	1629	7902
1	1622	7903
1	1618	7904
1	1610	7905
1	1604	7906
1	1593	7907
1	1582	7908
1	1579	7909
1	1575	7910
1	1576	7911
1	1585	7912
1	1589	7913
1	1593	7914
1	1594	7915
1	1599	7916
1	1603	7917
1	1607	7918
1	1611	7919
1	1616	7920
1	1617	7921
1	1608	7922
1	1607	7923
1	1608	7924
1	1607	7925
1	1605	7926
1	1611	7927
1	1613	7928
1	1620	7929
1	1622	7930
1	1626	7931
1	1624	7932
1	1620	7933
1	1620	7934
1	1620	7935
1	1616	7936
1	1604	7937
1	1595	7938
1	1593	7939
1	1589	7940
1	1587	7941
1	1596	7942
1	1604	7943
1	1606	7944
1	1617	7945
1	1620	7946
1	1625	7947
1	1633	7948
1	1638	7949
1	1647	7950
1	1656	7951
1	1651	7952
1	1644	7953
1	1634	7954
1	1634	7955
1	1634	7956
1	1636	7957
1	1636	7958
1	1629	7959
1	1632	7960
1	1630	7961
1	1625	7962
1	1622	7963
1	1625	7964
1	1634	7965
1	1647	7966
1	1660	7967
1	1677	7968
1	1688	7969
1	1697	7970
1	1692	7971
1	1685	7972
1	1664	7973
1	1647	7974
1	1634	7975
1	1621	7976
1	1616	7977
1	1616	7978
1	1620	7979
1	1628	7980
1	1637	7981
1	1644	7982
1	1647	7983
1	1648	7984
1	1647	7985
1	1648	7986
1	1658	7987
1	1661	7988
1	1668	7989
1	1675	7990
1	1686	7991
1	1696	7992
1	1698	7993
1	1693	7994
1	1686	7995
1	1679	7996
1	1675	7997
1	1682	7998
1	1685	7999
1	1685	8000
1	1683	8000
1	1688	8002
1	1692	8003
1	1701	8004
1	1711	8005
1	1712	8006
1	1712	8007
1	1710	8008
1	1699	8009
1	1687	8010
1	1679	8011
1	1671	8012
1	1671	8013
1	1676	8013
1	1680	8015
1	1683	8016
1	1684	8016
1	1674	8018
1	1674	8019
1	1670	8020
1	1665	8021
1	1660	8022
1	1660	8023
1	1665	8024
1	1675	8025
1	1683	8026
1	1675	8027
1	1673	8028
1	1673	8029
1	1669	8029
1	1662	8031
1	1661	8032
1	1652	8032
1	1641	8034
1	1634	8035
1	1629	8036
1	1625	8037
1	1620	8038
1	1619	8039
1	1610	8040
1	1610	8041
1	1612	8042
1	1620	8043
1	1626	8044
1	1633	8045
1	1635	8045
1	1639	8047
1	1647	8048
1	1647	8048
1	1657	8050
1	1674	8051
1	1687	8052
1	1700	8053
1	1711	8054
1	1710	8055
1	1701	8056
1	1682	8057
1	1665	8058
1	1648	8059
1	1593	8080
1	1589	8080
1	1589	8082
1	1589	8083
1	1589	8084
1	1594	8085
1	1607	8086
1	1620	8087
1	1638	8088
1	1659	8089
1	1679	8090
1	1690	8090
1	1707	8092
1	1710	8093
1	1709	8093
1	1709	8095
1	1712	8096
1	1716	8096
1	1714	8098
1	1710	8099
1	1633	8060
1	1615	8061
1	1605	8061
1	1589	8063
1	1582	8064
1	1585	8064
1	1600	8066
1	1618	8067
1	1636	8068
1	1648	8069
1	1654	8070
1	1658	8071
1	1652	8072
1	1649	8073
1	1646	8074
1	1639	8074
1	1633	8076
1	1626	8077
1	1610	8077
1	1602	8079
1	1699	8100
1	1690	8101
1	1677	8102
1	1670	8103
1	1660	8104
1	1654	8105
1	1646	8106
1	1643	8106
1	1634	8108
1	1629	8109
1	1624	8109
1	1626	8111
1	1634	8112
1	1645	8113
1	1654	8114
1	1660	8115
1	1665	8116
1	1670	8117
1	1686	8118
1	1708	8119
1	1734	8120
1	1764	8121
1	1801	8122
1	1843	8122
1	1878	8124
1	1916	8125
1	1948	8125
1	1973	8127
1	1993	8128
1	2013	8129
1	2030	8130
1	2052	8131
1	2063	8132
1	2075	8133
1	2079	8134
1	2084	8135
1	2094	8136
1	2119	8137
1	2138	8138
1	2163	8138
1	2188	8140
1	2210	8141
1	2233	8141
1	2254	8143
1	2274	8144
1	2299	8145
1	2320	8146
1	2336	8147
1	2340	8148
1	2328	8149
1	2305	8150
1	2268	8151
1	2220	8152
1	2152	8153
1	2070	8154
1	1986	8154
1	1904	8156
1	1827	8157
1	1756	8157
1	1698	8159
1	1651	8160
1	1615	8161
1	1581	8162
1	1566	8163
1	1559	8164
1	1557	8165
1	1568	8166
1	1580	8167
1	1587	8168
1	1599	8169
1	1616	8170
1	1634	8170
1	1646	8172
1	1649	8173
1	1649	8173
1	1647	8175
1	1644	8176
1	1643	8177
1	1652	8178
1	1665	8179
1	1682	8180
1	1687	8181
1	1703	8182
1	1710	8183
1	1713	8184
1	1720	8185
1	1728	8186
1	1733	8186
1	1734	8188
1	1729	8189
1	1727	8189
1	1725	8191
1	1715	8192
1	1711	8193
1	1708	8194
1	1701	8195
1	1697	8196
1	1701	8197
1	1704	8198
1	1706	8199
1	1712	8200
1	1711	8201
1	1704	8202
1	1692	8203
1	1685	8204
1	1679	8205
1	1685	8206
1	1688	8207
1	1700	8208
1	1712	8209
1	1723	8210
1	1738	8211
1	1764	8212
1	1782	8213
1	1796	8214
1	1808	8215
1	1801	8216
1	1791	8217
1	1772	8218
1	1751	8219
1	1724	8220
1	1698	8221
1	1675	8222
1	1661	8223
1	1655	8224
1	1650	8225
1	1651	8226
1	1657	8227
1	1659	8228
1	1660	8229
1	1665	8230
1	1679	8231
1	1699	8232
1	1724	8233
1	1746	8234
1	1764	8235
1	1774	8236
1	1775	8237
1	1778	8238
1	1775	8239
1	1769	8240
1	1769	8241
1	1767	8242
1	1767	8243
1	1762	8244
1	1750	8245
1	1744	8246
1	1746	8247
1	1739	8248
1	1737	8249
1	1734	8250
1	1731	8251
1	1721	8252
1	1721	8253
1	1724	8254
1	1721	8255
1	1715	8256
1	1719	8257
1	1730	8258
1	1741	8259
1	1760	8260
1	1764	8261
1	1769	8262
1	1776	8263
1	1778	8264
1	1775	8265
1	1772	8266
1	1760	8267
1	1751	8268
1	1743	8269
1	1740	8270
1	1740	8271
1	1751	8272
1	1748	8273
1	1748	8274
1	1744	8275
1	1741	8276
1	1738	8277
1	1737	8278
1	1741	8279
1	1751	8280
1	1764	8281
1	1767	8282
1	1770	8283
1	1774	8284
1	1776	8285
1	1770	8286
1	1768	8287
1	1760	8288
1	1751	8289
1	1750	8290
1	1751	8291
1	1756	8292
1	1761	8293
1	1760	8294
1	1762	8295
1	1764	8296
1	1763	8297
1	1764	8298
1	1774	8299
1	1783	8300
1	1795	8301
1	1817	8302
1	1821	8303
1	1832	8304
1	1842	8305
1	1847	8306
1	1854	8307
1	1857	8308
1	1859	8309
1	1863	8310
1	1855	8311
1	1832	8312
1	1816	8313
1	1796	8314
1	1790	8315
1	1789	8316
1	1796	8317
1	1793	8318
1	1783	8319
1	1765	8320
1	1751	8321
1	1742	8322
1	1738	8323
1	1737	8324
1	1738	8325
1	1744	8326
1	1754	8327
1	1768	8328
1	1787	8329
1	1803	8330
1	1824	8331
1	1847	8332
1	1856	8333
1	1858	8334
1	1868	8335
1	1880	8336
1	1895	8337
1	1904	8338
1	1895	8339
1	1870	8360
1	1869	8361
1	1869	8362
1	1868	8363
1	1862	8364
1	1861	8365
1	1862	8366
1	1860	8367
1	1860	8368
1	1856	8369
1	1854	8370
1	1852	8371
1	1844	8372
1	1845	8373
1	1846	8374
1	1845	8375
1	1845	8376
1	1857	8377
1	1863	8378
1	1869	8379
1	1886	8340
1	1867	8341
1	1842	8342
1	1816	8343
1	1787	8344
1	1764	8345
1	1751	8346
1	1747	8347
1	1753	8348
1	1769	8349
1	1788	8350
1	1814	8351
1	1822	8352
1	1836	8353
1	1843	8354
1	1850	8355
1	1856	8356
1	1857	8357
1	1865	8358
1	1869	8359
1	1801	8400
1	1817	8401
1	1823	8402
1	1832	8403
1	1839	8404
1	1838	8405
1	1829	8406
1	1817	8407
1	1791	8408
1	1775	8409
1	1765	8410
1	1760	8411
1	1752	8412
1	1747	8413
1	1741	8414
1	1738	8415
1	1733	8416
1	1718	8417
1	1713	8418
1	1710	8419
1	1869	8380
1	1870	8381
1	1869	8382
1	1867	8383
1	1859	8384
1	1854	8385
1	1851	8386
1	1843	8387
1	1842	8388
1	1839	8389
1	1841	8390
1	1835	8391
1	1832	8392
1	1825	8393
1	1815	8394
1	1803	8395
1	1795	8396
1	1782	8397
1	1778	8398
1	1788	8399
1	1705	8420
1	1699	8421
1	1699	8422
1	1690	8423
1	1681	8424
1	1674	8425
1	1672	8426
1	1674	8427
1	1681	8428
1	1686	8429
1	1692	8430
1	1692	8431
1	1688	8432
1	1692	8433
1	1700	8434
1	1712	8435
1	1722	8436
1	1733	8437
1	1724	8438
1	1712	8439
1	1698	8440
1	1683	8441
1	1660	8442
1	1646	8443
1	1634	8444
1	1633	8445
1	1628	8446
1	1626	8447
1	1626	8448
1	1629	8449
1	1629	8450
1	1625	8451
1	1618	8452
1	1609	8453
1	1606	8454
1	1607	8455
1	1616	8456
1	1624	8457
1	1629	8458
1	1623	8459
1	1620	8460
1	1619	8461
1	1607	8462
1	1598	8463
1	1592	8464
1	1590	8465
1	1594	8466
1	1607	8467
1	1608	8468
1	1613	8469
1	1618	8470
1	1620	8471
1	1619	8472
1	1612	8473
1	1610	8474
1	1615	8475
1	1615	8476
1	1607	8477
1	1602	8478
1	1599	8479
1	1602	8480
1	1605	8481
1	1613	8482
1	1625	8483
1	1633	8484
1	1636	8485
1	1645	8486
1	1648	8487
1	1656	8488
1	1658	8489
1	1660	8490
1	1660	8491
1	1646	8492
1	1634	8493
1	1619	8494
1	1608	8495
1	1599	8496
1	1595	8497
1	1587	8498
1	1581	8499
1	1574	8500
1	1569	8501
1	1566	8502
1	1569	8503
1	1575	8504
1	1581	8505
1	1586	8506
1	1589	8507
1	1602	8508
1	1619	8509
1	1634	8510
1	1645	8511
1	1656	8512
1	1659	8513
1	1659	8514
1	1651	8515
1	1647	8516
1	1647	8517
1	1647	8518
1	1647	8519
1	1642	8520
1	1634	8521
1	1622	8522
1	1613	8523
1	1608	8524
1	1603	8525
1	1595	8526
1	1593	8527
1	1588	8528
1	1584	8529
1	1591	8530
1	1607	8531
1	1625	8532
1	1642	8533
1	1652	8534
1	1661	8535
1	1673	8536
1	1677	8537
1	1685	8538
1	1686	8539
1	1678	8540
1	1661	8541
1	1655	8542
1	1640	8543
1	1620	8544
1	1611	8545
1	1599	8546
1	1592	8547
1	1583	8548
1	1576	8549
1	1573	8550
1	1581	8551
1	1585	8552
1	1598	8553
1	1612	8554
1	1631	8555
1	1642	8556
1	1651	8557
1	1658	8558
1	1660	8559
1	1673	8560
1	1675	8561
1	1680	8562
1	1679	8563
1	1671	8564
1	1659	8565
1	1647	8566
1	1634	8567
1	1628	8568
1	1623	8569
1	1616	8570
1	1611	8571
1	1613	8572
1	1611	8573
1	1608	8574
1	1605	8575
1	1595	8576
1	1593	8577
1	1592	8578
1	1592	8579
1	1594	8580
1	1598	8581
1	1603	8582
1	1616	8583
1	1634	8584
1	1652	8585
1	1667	8586
1	1686	8587
1	1697	8588
1	1701	8589
1	1701	8590
1	1700	8591
1	1697	8592
1	1686	8593
1	1673	8594
1	1661	8595
1	1660	8596
1	1647	8597
1	1634	8598
1	1625	8599
1	1613	8600
1	1603	8601
1	1600	8602
1	1594	8603
1	1594	8604
1	1596	8605
1	1607	8606
1	1625	8607
1	1644	8608
1	1660	8609
1	1670	8610
1	1677	8611
1	1681	8612
1	1686	8613
1	1691	8614
1	1688	8615
1	1685	8616
1	1686	8617
1	1681	8618
1	1670	8619
1	1651	8620
1	1632	8621
1	1613	8622
1	1603	8623
1	1599	8624
1	1597	8625
1	1605	8626
1	1607	8627
1	1607	8628
1	1615	8629
1	1620	8630
1	1621	8631
1	1631	8632
1	1625	8633
1	1615	8634
1	1603	8635
1	1592	8636
1	1584	8637
1	1581	8638
1	1579	8639
1	1628	8660
1	1626	8661
1	1628	8662
1	1625	8663
1	1621	8664
1	1618	8665
1	1610	8666
1	1602	8667
1	1593	8668
1	1589	8669
1	1584	8670
1	1581	8671
1	1569	8672
1	1562	8673
1	1566	8674
1	1571	8675
1	1581	8676
1	1595	8677
1	1605	8678
1	1616	8679
1	1630	8680
1	1638	8681
1	1646	8682
1	1649	8683
1	1650	8684
1	1652	8685
1	1651	8686
1	1647	8687
1	1647	8688
1	1647	8689
1	1644	8690
1	1638	8691
1	1634	8692
1	1634	8693
1	1634	8694
1	1634	8695
1	1642	8696
1	1644	8697
1	1646	8698
1	1636	8699
1	1577	8640
1	1571	8641
1	1569	8642
1	1567	8643
1	1571	8644
1	1580	8645
1	1593	8646
1	1612	8647
1	1634	8648
1	1648	8649
1	1660	8650
1	1674	8651
1	1675	8652
1	1677	8653
1	1674	8654
1	1668	8655
1	1660	8656
1	1646	8657
1	1637	8658
1	1633	8659
1	1629	8700
1	1618	8701
1	1607	8702
1	1594	8703
1	1580	8704
1	1561	8705
1	1550	8706
1	1542	8707
1	1542	8708
1	1548	8709
1	1555	8710
1	1571	8711
1	1589	8712
1	1607	8713
1	1626	8714
1	1637	8715
1	1647	8716
1	1654	8717
1	1661	8718
1	1665	8719
1	1660	8720
1	1652	8721
1	1645	8722
1	1636	8723
1	1628	8724
1	1620	8725
1	1613	8726
1	1613	8727
1	1619	8728
1	1626	8729
1	1629	8730
1	1625	8731
1	1613	8732
1	1607	8733
1	1607	8734
1	1606	8735
1	1599	8736
1	1607	8737
1	1611	8738
1	1621	8739
1	1631	8740
1	1634	8741
1	1623	8742
1	1609	8743
1	1605	8744
1	1598	8745
1	1594	8746
1	1594	8747
1	1599	8748
1	1603	8749
1	1610	8750
1	1623	8751
1	1635	8752
1	1644	8753
1	1645	8754
1	1642	8755
1	1644	8756
1	1638	8757
1	1631	8758
1	1622	8759
1	1613	8760
1	1607	8761
1	1593	8762
1	1584	8763
1	1579	8764
1	1571	8765
1	1566	8766
1	1572	8767
1	1578	8768
1	1582	8769
1	1593	8770
1	1602	8771
1	1608	8772
1	1621	8773
1	1633	8774
1	1639	8775
1	1647	8776
1	1647	8777
1	1647	8778
1	1651	8779
1	1657	8780
1	1661	8781
1	1670	8782
1	1663	8783
1	1657	8784
1	1647	8785
1	1636	8786
1	1634	8787
1	1627	8788
1	1616	8789
1	1608	8790
1	1599	8791
1	1590	8792
1	1581	8793
1	1580	8794
1	1581	8795
1	1580	8796
1	1580	8797
1	1579	8798
1	1567	8799
1	1572	8800
1	1579	8801
1	1587	8802
1	1602	8803
1	1621	8804
1	1644	8805
1	1662	8806
1	1669	8807
1	1677	8808
1	1682	8809
1	1678	8810
1	1672	8811
1	1661	8812
1	1649	8813
1	1634	8814
1	1624	8815
1	1620	8816
1	1620	8817
1	1621	8818
1	1621	8819
1	1623	8820
1	1631	8821
1	1631	8822
1	1630	8823
1	1634	8824
1	1634	8825
1	1633	8826
1	1629	8827
1	1618	8828
1	1603	8829
1	1589	8830
1	1581	8831
1	1580	8832
1	1581	8833
1	1589	8834
1	1595	8835
1	1607	8836
1	1612	8837
1	1621	8838
1	1631	8839
1	1638	8840
1	1646	8841
1	1657	8842
1	1660	8843
1	1659	8844
1	1660	8845
1	1660	8846
1	1658	8847
1	1657	8848
1	1652	8849
1	1643	8850
1	1632	8851
1	1611	8852
1	1603	8853
1	1597	8854
1	1596	8855
1	1602	8856
1	1608	8857
1	1620	8858
1	1632	8859
1	1644	8860
1	1656	8861
1	1667	8862
1	1677	8863
1	1685	8864
1	1682	8865
1	1672	8866
1	1661	8867
1	1656	8868
1	1651	8869
1	1647	8870
1	1635	8871
1	1620	8872
1	1602	8873
1	1592	8874
1	1593	8875
1	1590	8876
1	1582	8877
1	1579	8878
1	1576	8879
1	1575	8880
1	1579	8881
1	1581	8882
1	1586	8883
1	1593	8884
1	1602	8885
1	1618	8886
1	1644	8887
1	1661	8888
1	1671	8889
1	1679	8890
1	1678	8891
1	1679	8892
1	1680	8893
1	1685	8894
1	1688	8895
1	1689	8896
1	1686	8897
1	1683	8898
1	1677	8899
1	1668	8900
1	1657	8901
1	1650	8902
1	1643	8903
1	1634	8904
1	1625	8905
1	1619	8906
1	1613	8907
1	1612	8908
1	1611	8909
1	1620	8910
1	1629	8911
1	1632	8912
1	1636	8913
1	1642	8914
1	1647	8915
1	1652	8916
1	1665	8917
1	1679	8918
1	1688	8919
1	1695	8920
1	1693	8921
1	1690	8922
1	1691	8923
1	1688	8924
1	1685	8925
1	1680	8926
1	1669	8927
1	1660	8928
1	1656	8929
1	1647	8930
1	1645	8931
1	1650	8932
1	1651	8933
1	1655	8934
1	1665	8935
1	1682	8936
1	1693	8937
1	1701	8938
1	1710	8939
1	1698	8940
1	1689	8941
1	1681	8942
1	1675	8943
1	1672	8944
1	1668	8945
1	1662	8946
1	1664	8947
1	1662	8948
1	1661	8949
1	1660	8950
1	1664	8951
1	1665	8952
1	1664	8953
1	1663	8954
1	1660	8955
1	1660	8956
1	1656	8957
1	1660	8958
1	1664	8959
1	1669	8960
1	1665	8961
1	1672	8962
1	1667	8963
1	1661	8964
1	1655	8965
1	1649	8966
1	1648	8967
1	1654	8968
1	1660	8969
1	1659	8970
1	1650	8971
1	1635	8972
1	1629	8973
1	1623	8974
1	1624	8975
1	1625	8976
1	1631	8977
1	1623	8978
1	1615	8979
1	1607	8980
1	1598	8981
1	1595	8982
1	1598	8983
1	1607	8984
1	1616	8985
1	1626	8986
1	1633	8987
1	1636	8988
1	1638	8989
1	1638	8990
1	1639	8991
1	1646	8992
1	1639	8993
1	1630	8994
1	1621	8995
1	1617	8996
1	1611	8997
1	1613	8998
1	1611	8999
1	1607	9000
1	1607	9001
1	1605	9002
1	1607	9003
1	1607	9004
1	1606	9005
1	1607	9006
1	1602	9007
1	1603	9008
1	1606	9009
1	1607	9010
1	1607	9011
1	1607	9012
1	1607	9013
1	1609	9014
1	1615	9015
1	1617	9016
1	1608	9017
1	1604	9018
1	1607	9019
1	1612	9020
1	1616	9021
1	1625	9022
1	1620	9023
1	1616	9024
1	1613	9025
1	1617	9026
1	1620	9027
1	1621	9028
1	1626	9029
1	1632	9030
1	1633	9031
1	1624	9032
1	1618	9033
1	1610	9034
1	1605	9035
1	1597	9036
1	1592	9037
1	1581	9038
1	1579	9039
1	1587	9040
1	1607	9041
1	1618	9042
1	1634	9043
1	1644	9044
1	1647	9045
1	1647	9046
1	1647	9047
1	1646	9048
1	1642	9049
1	1635	9050
1	1634	9051
1	1634	9052
1	1635	9053
1	1636	9054
1	1641	9055
1	1656	9056
1	1668	9057
1	1683	9058
1	1697	9059
1	1712	9060
1	1733	9061
1	1760	9062
1	1791	9063
1	1829	9064
1	1865	9065
1	1904	9066
1	1951	9067
1	1986	9068
1	2017	9069
1	2032	9070
1	2032	9071
1	2027	9072
1	2025	9073
1	2021	9074
1	2018	9075
1	2022	9076
1	2026	9077
1	2043	9078
1	2065	9079
1	2088	9080
1	2112	9081
1	2149	9082
1	2185	9083
1	2229	9084
1	2272	9085
1	2310	9086
1	2335	9087
1	2345	9088
1	2330	9089
1	2289	9090
1	2237	9091
1	2158	9092
1	2080	9093
1	1999	9094
1	1909	9095
1	1827	9096
1	1756	9097
1	1690	9098
1	1634	9099
1	1596	9100
1	1570	9101
1	1555	9102
1	1553	9103
1	1553	9104
1	1557	9105
1	1562	9106
1	1566	9107
1	1576	9108
1	1581	9109
1	1592	9110
1	1607	9111
1	1625	9112
1	1636	9113
1	1646	9114
1	1655	9115
1	1661	9116
1	1673	9117
1	1683	9118
1	1688	9119
1	1695	9120
1	1691	9121
1	1674	9122
1	1658	9123
1	1638	9124
1	1621	9125
1	1607	9126
1	1599	9127
1	1597	9128
1	1611	9129
1	1629	9130
1	1644	9131
1	1660	9132
1	1675	9133
1	1685	9134
1	1686	9135
1	1686	9136
1	1678	9137
1	1661	9138
1	1647	9139
1	1631	9140
1	1607	9141
1	1587	9142
1	1564	9143
1	1542	9144
1	1538	9145
1	1536	9146
1	1541	9147
1	1553	9148
1	1571	9149
1	1590	9150
1	1620	9151
1	1643	9152
1	1672	9153
1	1697	9154
1	1715	9155
1	1731	9156
1	1737	9157
1	1733	9158
1	1721	9159
1	1715	9160
1	1706	9161
1	1691	9162
1	1682	9163
1	1668	9164
1	1655	9165
1	1638	9166
1	1619	9167
1	1605	9168
1	1597	9169
1	1598	9170
1	1605	9171
1	1618	9172
1	1620	9173
1	1624	9174
1	1630	9175
1	1636	9176
1	1645	9177
1	1647	9178
1	1647	9179
1	1643	9200
1	1635	9201
1	1643	9202
1	1647	9203
1	1659	9204
1	1669	9205
1	1675	9206
1	1683	9207
1	1685	9208
1	1685	9209
1	1682	9210
1	1670	9211
1	1656	9212
1	1645	9213
1	1643	9214
1	1646	9215
1	1654	9216
1	1662	9217
1	1665	9218
1	1670	9219
1	1645	9180
1	1643	9181
1	1636	9182
1	1637	9183
1	1643	9184
1	1647	9185
1	1656	9186
1	1665	9187
1	1665	9188
1	1668	9189
1	1674	9190
1	1679	9191
1	1683	9192
1	1684	9193
1	1685	9194
1	1688	9195
1	1686	9196
1	1675	9197
1	1665	9198
1	1654	9199
1	1681	9220
1	1691	9221
1	1701	9222
1	1709	9223
1	1715	9224
1	1723	9225
1	1724	9226
1	1713	9227
1	1701	9228
1	1690	9229
1	1686	9230
1	1685	9231
1	1700	9232
1	1712	9233
1	1727	9234
1	1739	9235
1	1750	9236
1	1752	9237
1	1749	9238
1	1731	9239
1	1751	9260
1	1763	9261
1	1770	9262
1	1769	9263
1	1764	9264
1	1750	9265
1	1729	9266
1	1713	9267
1	1696	9268
1	1685	9269
1	1679	9270
1	1677	9271
1	1675	9272
1	1677	9273
1	1687	9274
1	1701	9275
1	1716	9276
1	1734	9277
1	1744	9278
1	1753	9279
1	1762	9280
1	1765	9281
1	1767	9282
1	1769	9283
1	1770	9284
1	1775	9285
1	1775	9286
1	1766	9287
1	1763	9288
1	1755	9289
1	1753	9290
1	1764	9291
1	1782	9292
1	1796	9293
1	1814	9294
1	1826	9295
1	1832	9296
1	1826	9297
1	1815	9298
1	1795	9299
1	1783	9300
1	1765	9301
1	1751	9302
1	1739	9303
1	1729	9304
1	1720	9305
1	1711	9306
1	1713	9307
1	1715	9308
1	1715	9309
1	1712	9310
1	1708	9311
1	1709	9312
1	1712	9313
1	1721	9314
1	1736	9315
1	1746	9316
1	1760	9317
1	1772	9318
1	1785	9319
1	1713	9240
1	1695	9241
1	1675	9242
1	1659	9243
1	1647	9244
1	1644	9245
1	1644	9246
1	1647	9247
1	1652	9248
1	1664	9249
1	1675	9250
1	1687	9251
1	1685	9252
1	1684	9253
1	1683	9254
1	1688	9255
1	1700	9256
1	1710	9257
1	1721	9258
1	1735	9259
1	1795	9320
1	1799	9321
1	1800	9322
1	1788	9323
1	1770	9324
1	1759	9325
1	1747	9326
1	1738	9327
1	1733	9328
1	1734	9329
1	1738	9330
1	1742	9331
1	1738	9332
1	1736	9333
1	1728	9334
1	1713	9335
1	1701	9336
1	1697	9337
1	1687	9338
1	1679	9339
1	1686	9340
1	1688	9341
1	1685	9342
1	1685	9343
1	1686	9344
1	1686	9345
1	1690	9346
1	1692	9347
1	1693	9348
1	1694	9349
1	1696	9350
1	1697	9351
1	1693	9352
1	1692	9353
1	1695	9354
1	1698	9355
1	1705	9356
1	1708	9357
1	1704	9358
1	1701	9359
1	1694	9360
1	1683	9361
1	1669	9362
1	1660	9363
1	1647	9364
1	1632	9365
1	1612	9366
1	1599	9367
1	1581	9368
1	1559	9369
1	1548	9370
1	1543	9371
1	1542	9372
1	1541	9373
1	1544	9374
1	1551	9375
1	1556	9376
1	1558	9377
1	1564	9378
1	1569	9379
1	1572	9380
1	1580	9381
1	1586	9382
1	1592	9383
1	1598	9384
1	1606	9385
1	1607	9386
1	1610	9387
1	1610	9388
1	1610	9389
1	1615	9390
1	1618	9391
1	1609	9392
1	1601	9393
1	1584	9394
1	1564	9395
1	1548	9396
1	1542	9397
1	1530	9398
1	1520	9399
1	1507	9400
1	1500	9401
1	1494	9402
1	1494	9403
1	1503	9404
1	1513	9405
1	1529	9406
1	1536	9407
1	1545	9408
1	1553	9409
1	1553	9410
1	1549	9411
1	1554	9412
1	1549	9413
1	1544	9414
1	1543	9415
1	1542	9416
1	1541	9417
1	1542	9418
1	1544	9419
1	1518	9440
1	1520	9441
1	1529	9442
1	1536	9443
1	1541	9444
1	1557	9445
1	1572	9446
1	1581	9447
1	1590	9448
1	1592	9449
1	1590	9450
1	1593	9451
1	1584	9452
1	1576	9453
1	1563	9454
1	1553	9455
1	1546	9456
1	1540	9457
1	1530	9458
1	1526	9459
1	1528	9460
1	1529	9461
1	1528	9462
1	1529	9463
1	1530	9464
1	1533	9465
1	1542	9466
1	1544	9467
1	1546	9468
1	1555	9469
1	1561	9470
1	1571	9471
1	1583	9472
1	1591	9473
1	1598	9474
1	1599	9475
1	1598	9476
1	1602	9477
1	1602	9478
1	1607	9479
1	1543	9420
1	1542	9421
1	1535	9422
1	1529	9423
1	1518	9424
1	1510	9425
1	1505	9426
1	1514	9427
1	1518	9428
1	1529	9429
1	1534	9430
1	1538	9431
1	1530	9432
1	1525	9433
1	1518	9434
1	1517	9435
1	1517	9436
1	1517	9437
1	1517	9438
1	1517	9439
1	1607	9480
1	1598	9481
1	1581	9482
1	1571	9483
1	1561	9484
1	1555	9485
1	1543	9486
1	1530	9487
1	1514	9488
1	1499	9489
1	1485	9490
1	1476	9491
1	1472	9492
1	1476	9493
1	1484	9494
1	1498	9495
1	1519	9496
1	1538	9497
1	1559	9498
1	1580	9499
1	1594	9500
1	1605	9501
1	1619	9502
1	1625	9503
1	1620	9504
1	1609	9505
1	1603	9506
1	1595	9507
1	1589	9508
1	1581	9509
1	1566	9510
1	1553	9511
1	1535	9512
1	1529	9513
1	1530	9514
1	1533	9515
1	1535	9516
1	1541	9517
1	1542	9518
1	1546	9519
1	1550	9520
1	1558	9521
1	1573	9522
1	1585	9523
1	1594	9524
1	1596	9525
1	1593	9526
1	1581	9527
1	1571	9528
1	1566	9529
1	1556	9530
1	1555	9531
1	1557	9532
1	1560	9533
1	1571	9534
1	1585	9535
1	1599	9536
1	1608	9537
1	1612	9538
1	1607	9539
1	1606	9540
1	1600	9541
1	1597	9542
1	1594	9543
1	1590	9544
1	1585	9545
1	1581	9546
1	1580	9547
1	1580	9548
1	1571	9549
1	1566	9550
1	1572	9551
1	1574	9552
1	1574	9553
1	1576	9554
1	1570	9555
1	1562	9556
1	1551	9557
1	1537	9558
1	1524	9559
1	1517	9560
1	1515	9561
1	1526	9562
1	1534	9563
1	1544	9564
1	1555	9565
1	1571	9566
1	1582	9567
1	1593	9568
1	1600	9569
1	1607	9570
1	1616	9571
1	1615	9572
1	1610	9573
1	1605	9574
1	1594	9575
1	1588	9576
1	1584	9577
1	1581	9578
1	1578	9579
1	1548	9600
1	1551	9601
1	1554	9602
1	1555	9603
1	1561	9604
1	1561	9605
1	1561	9606
1	1569	9607
1	1581	9608
1	1599	9609
1	1615	9610
1	1629	9611
1	1634	9612
1	1638	9613
1	1644	9614
1	1647	9615
1	1647	9616
1	1638	9617
1	1634	9618
1	1625	9619
1	1571	9580
1	1564	9581
1	1556	9582
1	1554	9583
1	1549	9584
1	1544	9585
1	1541	9586
1	1535	9587
1	1534	9588
1	1538	9589
1	1541	9590
1	1542	9591
1	1546	9592
1	1543	9593
1	1537	9594
1	1530	9595
1	1530	9596
1	1531	9597
1	1539	9598
1	1544	9599
1	1610	9620
1	1594	9621
1	1585	9622
1	1574	9623
1	1561	9624
1	1546	9625
1	1534	9626
1	1530	9627
1	1529	9628
1	1530	9629
1	1530	9630
1	1526	9631
1	1518	9632
1	1520	9633
1	1529	9634
1	1534	9635
1	1540	9636
1	1548	9637
1	1551	9638
1	1544	9639
1	1555	9640
1	1557	9641
1	1556	9642
1	1566	9643
1	1572	9644
1	1579	9645
1	1580	9646
1	1571	9647
1	1566	9648
1	1560	9649
1	1558	9650
1	1566	9651
1	1569	9652
1	1572	9653
1	1568	9654
1	1562	9655
1	1559	9656
1	1561	9657
1	1564	9658
1	1567	9659
1	1574	9660
1	1583	9661
1	1582	9662
1	1583	9663
1	1581	9664
1	1575	9665
1	1574	9666
1	1575	9667
1	1583	9668
1	1581	9669
1	1592	9670
1	1592	9671
1	1589	9672
1	1589	9673
1	1589	9674
1	1593	9675
1	1598	9676
1	1600	9677
1	1607	9678
1	1613	9679
1	1608	9680
1	1602	9681
1	1598	9682
1	1589	9683
1	1583	9684
1	1581	9685
1	1581	9686
1	1581	9687
1	1582	9688
1	1581	9689
1	1581	9690
1	1577	9691
1	1567	9692
1	1564	9693
1	1565	9694
1	1569	9695
1	1575	9696
1	1584	9697
1	1585	9698
1	1584	9699
1	1578	9700
1	1568	9701
1	1560	9702
1	1551	9703
1	1544	9704
1	1538	9705
1	1533	9706
1	1529	9707
1	1529	9708
1	1539	9709
1	1553	9710
1	1561	9711
1	1576	9712
1	1584	9713
1	1593	9714
1	1598	9715
1	1594	9716
1	1586	9717
1	1581	9718
1	1580	9719
1	1577	9720
1	1581	9721
1	1581	9722
1	1585	9723
1	1589	9724
1	1594	9725
1	1603	9726
1	1615	9727
1	1623	9728
1	1633	9729
1	1636	9730
1	1639	9731
1	1639	9732
1	1634	9733
1	1628	9734
1	1615	9735
1	1607	9736
1	1593	9737
1	1584	9738
1	1581	9739
1	1580	9740
1	1580	9741
1	1584	9742
1	1589	9743
1	1586	9744
1	1596	9745
1	1598	9746
1	1594	9747
1	1595	9748
1	1592	9749
1	1586	9750
1	1583	9751
1	1582	9752
1	1583	9753
1	1580	9754
1	1569	9755
1	1562	9756
1	1559	9757
1	1570	9758
1	1561	9759
1	1573	9760
1	1574	9761
1	1573	9762
1	1566	9763
1	1556	9764
1	1549	9765
1	1546	9766
1	1542	9767
1	1548	9768
1	1557	9769
1	1567	9770
1	1575	9771
1	1589	9772
1	1594	9773
1	1596	9774
1	1597	9775
1	1599	9776
1	1602	9777
1	1607	9778
1	1616	9779
1	1620	9780
1	1625	9781
1	1616	9782
1	1608	9783
1	1603	9784
1	1593	9785
1	1582	9786
1	1580	9787
1	1574	9788
1	1577	9789
1	1580	9790
1	1581	9791
1	1583	9792
1	1585	9793
1	1587	9794
1	1593	9795
1	1602	9796
1	1602	9797
1	1598	9798
1	1600	9799
1	1607	9800
1	1615	9801
1	1633	9802
1	1644	9803
1	1647	9804
1	1647	9805
1	1642	9806
1	1635	9807
1	1633	9808
1	1621	9809
1	1615	9810
1	1605	9811
1	1589	9812
1	1580	9813
1	1568	9814
1	1556	9815
1	1548	9816
1	1548	9817
1	1540	9818
1	1536	9819
1	1538	9820
1	1546	9821
1	1555	9822
1	1563	9823
1	1571	9824
1	1580	9825
1	1589	9826
1	1597	9827
1	1607	9828
1	1612	9829
1	1610	9830
1	1602	9831
1	1596	9832
1	1590	9833
1	1583	9834
1	1580	9835
1	1575	9836
1	1572	9837
1	1574	9838
1	1574	9839
1	1580	9840
1	1580	9841
1	1580	9842
1	1577	9843
1	1569	9844
1	1557	9845
1	1553	9846
1	1552	9847
1	1554	9848
1	1559	9849
1	1569	9850
1	1581	9851
1	1585	9852
1	1590	9853
1	1594	9854
1	1595	9855
1	1603	9856
1	1605	9857
1	1610	9858
1	1616	9859
1	1619	9860
1	1620	9861
1	1625	9862
1	1627	9863
1	1626	9864
1	1625	9865
1	1623	9866
1	1625	9867
1	1621	9868
1	1621	9869
1	1623	9870
1	1624	9871
1	1618	9872
1	1611	9873
1	1603	9874
1	1593	9875
1	1582	9876
1	1583	9877
1	1580	9878
1	1581	9879
1	1583	9880
1	1584	9881
1	1582	9882
1	1583	9883
1	1592	9884
1	1602	9885
1	1611	9886
1	1615	9887
1	1616	9888
1	1616	9889
1	1607	9890
1	1602	9891
1	1604	9892
1	1599	9893
1	1599	9894
1	1607	9895
1	1616	9896
1	1618	9897
1	1623	9898
1	1626	9899
1	1623	9900
1	1623	9901
1	1625	9902
1	1631	9903
1	1634	9904
1	1636	9905
1	1639	9906
1	1647	9907
1	1647	9908
1	1643	9909
1	1642	9910
1	1644	9911
1	1648	9912
1	1646	9913
1	1636	9914
1	1629	9915
1	1620	9916
1	1602	9917
1	1593	9918
1	1590	9919
1	1593	9920
1	1594	9921
1	1599	9922
1	1594	9923
1	1595	9924
1	1595	9925
1	1597	9926
1	1600	9927
1	1607	9928
1	1615	9929
1	1629	9930
1	1644	9931
1	1649	9932
1	1660	9933
1	1672	9934
1	1683	9935
1	1687	9936
1	1695	9937
1	1698	9938
1	1689	9939
1	1697	9940
1	1697	9941
1	1686	9942
1	1683	9943
1	1676	9944
1	1662	9945
1	1651	9946
1	1636	9947
1	1629	9948
1	1618	9949
1	1611	9950
1	1607	9951
1	1607	9952
1	1607	9953
1	1607	9954
1	1612	9955
1	1621	9956
1	1623	9957
1	1622	9958
1	1615	9959
1	1605	9960
1	1595	9961
1	1580	9962
1	1568	9963
1	1555	9964
1	1548	9965
1	1550	9966
1	1561	9967
1	1577	9968
1	1594	9969
1	1612	9970
1	1628	9971
1	1633	9972
1	1633	9973
1	1625	9974
1	1613	9975
1	1603	9976
1	1586	9977
1	1575	9978
1	1562	9979
1	1556	9980
1	1555	9981
1	1558	9982
1	1557	9983
1	1555	9984
1	1557	9985
1	1560	9986
1	1569	9987
1	1580	9988
1	1584	9989
1	1590	9990
1	1589	9991
1	1585	9992
1	1584	9993
1	1581	9994
1	1580	9995
1	1579	9996
1	1582	9997
1	1584	9998
1	1585	9999
1	1581	10000
1	1575	10001
1	1572	10002
1	1569	10003
1	1569	10004
1	1569	10005
1	1566	10006
1	1554	10007
1	1542	10008
1	1539	10009
1	1547	10010
1	1558	10011
1	1578	10012
1	1591	10013
1	1600	10014
1	1608	10015
1	1611	10016
1	1607	10017
1	1600	10018
1	1592	10019
1	1581	10020
1	1574	10021
1	1559	10022
1	1555	10023
1	1549	10024
1	1546	10025
1	1544	10026
1	1557	10027
1	1572	10028
1	1589	10029
1	1602	10030
1	1610	10031
1	1620	10032
1	1626	10033
1	1630	10034
1	1625	10035
1	1623	10036
1	1609	10037
1	1603	10038
1	1603	10039
1	1607	10040
1	1607	10041
1	1607	10042
1	1597	10043
1	1581	10044
1	1559	10045
1	1555	10046
1	1553	10047
1	1556	10048
1	1565	10049
1	1581	10050
1	1603	10051
1	1625	10052
1	1655	10053
1	1687	10054
1	1723	10055
1	1755	10056
1	1783	10057
1	1816	10058
1	1843	10059
1	1878	10060
1	1899	10061
1	1918	10062
1	1931	10063
1	1940	10064
1	1946	10065
1	1949	10066
1	1952	10067
1	1962	10068
1	1975	10069
1	1991	10070
1	2004	10071
1	2027	10072
1	2051	10073
1	2078	10074
1	2108	10075
1	2149	10076
1	2188	10077
1	2230	10078
1	2261	10079
1	2276	10080
1	2284	10081
1	2270	10082
1	2248	10083
1	2207	10084
1	2154	10085
1	2079	10086
1	2004	10087
1	1916	10088
1	1829	10089
1	1743	10090
1	1662	10091
1	1587	10092
