#Date:= 2024-10-08T15:43:27.986769
#Sampling Rate(Hz):= 1000
#Labels:= LOD	ECG	TS
1	2152	20
1	2119	21
1	2081	22
1	2038	23
1	2000	24
1	1960	25
1	1926	26
1	1900	27
1	1881	28
1	1661	29
1	1572	30
1	1495	31
1	1458	32
1	1453	33
1	1476	34
1	1510	35
1	1577	36
1	1672	37
1	1780	38
1	1880	39
1	1973	40
1	2043	41
1	2085	42
1	2104	43
1	2105	44
1	2079	45
1	2044	46
1	1998	47
1	1948	48
1	1909	49
1	1901	50
1	1908	51
1	1923	52
1	1948	53
1	1949	54
1	1940	55
1	1917	56
1	1883	57
1	1839	58
1	1782	59
1	1739	60
1	1719	61
1	1713	62
1	1721	63
1	1734	64
1	1744	65
1	1764	66
1	1793	67
1	1829	68
1	1857	69
1	1893	70
1	1930	71
1	1962	72
1	1990	73
1	2000	74
1	2012	75
1	2021	76
1	2007	77
1	1974	78
1	1937	79
1	1908	80
1	1887	81
1	1858	82
1	1822	83
1	1764	84
1	1708	85
1	1659	86
1	1607	87
1	1550	88
1	1491	89
1	1445	90
1	1409	91
1	1382	92
1	1382	93
1	1402	94
1	1437	95
1	1482	96
1	1530	97
1	1579	98
1	1607	99
1	1634	100
1	1656	101
1	1668	102
1	1668	103
1	1659	104
1	1629	105
1	1592	106
1	1553	107
1	1517	108
1	1492	109
1	1490	110
1	1514	111
1	1556	112
1	1616	113
1	1665	114
1	1711	115
1	1749	116
1	1773	117
1	1791	118
1	1796	119
1	1795	120
1	1782	121
1	1751	122
1	1708	123
1	1652	124
1	1598	125
1	1556	126
1	1529	127
1	1503	128
1	1485	129
1	1474	130
1	1463	131
1	1458	132
1	1447	133
1	1436	134
1	1428	135
1	1436	136
1	1446	137
1	1474	138
1	1501	139
1	1531	140
1	1571	141
1	1607	142
1	1642	143
1	1661	144
1	1686	145
1	1704	146
1	1723	147
1	1731	148
1	1734	149
1	1736	150
1	1743	151
1	1778	152
1	1831	153
1	1895	154
1	1970	155
1	2045	156
1	2122	157
1	2184	158
1	2221	159
1	2241	160
1	2240	161
1	2222	162
1	2197	163
1	2152	164
1	2106	165
1	2066	166
1	2032	167
1	2008	168
1	1998	169
1	2000	170
1	2013	171
1	2029	172
1	2049	173
1	2057	174
1	2064	175
1	2057	176
1	2040	177
1	2022	178
1	1999	179
1	1987	180
1	1983	181
1	1986	182
1	1999	183
1	2003	184
1	2014	185
1	2024	186
1	2025	187
1	2021	188
1	1991	189
1	1961	190
1	1921	191
1	1884	192
1	1862	193
1	1850	194
1	1852	195
1	1868	196
1	1893	197
1	1906	198
1	1921	199
1	1935	200
1	1944	201
1	1950	202
1	1963	203
1	1969	204
1	1976	205
1	1987	206
1	1997	207
1	2002	208
1	1991	209
1	1974	210
1	1962	211
1	1955	212
1	1956	213
1	1958	214
1	1970	215
1	1981	216
1	1993	217
1	2000	218
1	1998	219
1	1991	220
1	1980	221
1	1970	222
1	1960	223
1	1930	224
1	1898	225
1	1878	226
1	1868	227
1	1856	228
1	1845	229
1	1829	230
1	1795	231
1	1765	232
1	1751	233
1	1764	234
1	1814	235
1	1866	236
1	1922	237
1	1976	238
1	2026	239
1	2066	240
1	2094	241
1	2124	242
1	2145	243
1	2162	244
1	2181	245
1	2197	246
1	2209	247
1	2220	248
1	2236	249
1	2262	250
1	2291	251
1	2327	252
1	2355	253
1	2353	254
1	2325	255
1	2278	256
1	2222	257
1	2172	258
1	2127	259
1	2079	260
1	2039	261
1	1991	262
1	1940	263
1	1888	264
1	1845	265
1	1817	266
1	1789	267
1	1770	268
1	1751	269
1	1741	270
1	1742	271
1	1756	272
1	1790	273
1	1829	274
1	1872	275
1	1922	276
1	1977	277
1	2039	278
1	2096	279
1	2148	280
1	2188	281
1	2219	282
1	2242	283
1	2221	284
1	2192	285
1	2156	286
1	2108	287
1	2047	288
1	1986	289
1	1922	290
1	1853	291
1	1775	292
1	1714	293
1	1693	294
1	1712	295
1	1752	296
1	1803	297
1	1862	298
1	1908	299
1	1958	300
1	2026	301
1	2114	302
1	2210	303
1	2293	304
1	2359	305
1	2412	306
1	2431	307
1	2437	308
1	2444	309
1	2472	310
1	2509	311
1	2563	312
1	2655	313
1	2764	314
1	2896	315
1	3033	316
1	3130	317
1	3130	318
1	3130	319
1	3130	320
1	3130	321
1	3130	322
1	3130	323
1	3130	324
1	3130	325
1	3130	326
1	3130	327
1	3130	328
1	3130	329
1	3130	330
1	3130	331
1	3130	332
1	3130	333
1	3130	334
1	3130	335
1	3130	336
1	3130	337
1	3130	338
1	3130	339
1	3059	340
1	2931	341
1	2781	342
1	2644	343
1	2520	344
1	2426	345
1	2345	346
1	2288	347
1	2233	348
1	2179	349
1	2133	350
1	2097	351
1	2063	352
1	2041	353
1	2039	354
1	2048	355
1	2044	356
1	2004	357
1	1949	358
1	1877	359
1	1801	360
1	1738	361
1	1687	362
1	1646	363
1	1607	364
1	1581	365
1	1561	366
1	1545	367
1	1538	368
1	1546	369
1	1561	370
1	1590	371
1	1621	372
1	1668	373
1	1716	374
1	1772	375
1	1814	376
1	1817	377
1	1800	378
1	1791	379
1	1791	380
1	1820	381
1	1849	382
1	1874	383
1	1872	384
1	1868	385
1	1850	386
1	1815	387
1	1760	388
1	1702	389
1	1642	390
1	1575	391
1	1503	392
1	1431	393
1	1366	394
1	1323	395
1	1306	396
1	1299	397
1	1306	398
1	1309	399
1	1319	400
1	1332	401
1	1343	402
1	1346	403
1	1332	404
1	1319	405
1	1302	406
1	1286	407
1	1269	408
1	1258	409
1	1250	410
1	1241	411
1	1236	412
1	1227	413
1	1214	414
1	1202	415
1	1202	416
1	1206	417
1	1204	418
1	1188	419
1	1167	420
1	1160	421
1	1157	422
1	1162	423
1	1168	424
1	1175	425
1	1184	426
1	1191	427
1	1206	428
1	1217	429
1	1229	430
1	1242	431
1	1265	432
1	1296	433
1	1346	434
1	1399	435
1	1459	436
1	1523	437
1	1566	438
1	1611	439
1	1663	440
1	1724	441
1	1786	442
1	1841	443
1	1881	444
1	1908	445
1	1919	446
1	1923	447
1	1935	448
1	1959	449
1	1976	450
1	1985	451
1	1975	452
1	1949	453
1	1919	454
1	1886	455
1	1857	456
1	1831	457
1	1809	458
1	1792	459
1	1823	460
1	1871	461
1	1931	462
1	2001	463
1	2065	464
1	2131	465
1	2186	466
1	2235	467
1	2260	468
1	2270	469
1	2278	470
1	2298	471
1	2318	472
1	2329	473
1	2307	474
1	2282	475
1	2257	476
1	2233	477
1	2212	478
1	2206	479
1	2210	480
1	2219	481
1	2222	482
1	2222	483
1	2214	484
1	2201	485
1	2197	486
1	2191	487
1	2162	488
1	2122	489
1	2080	490
1	2052	491
1	2034	492
1	2043	493
1	2068	494
1	2109	495
1	2168	496
1	2238	497
1	2309	498
1	2375	499
1	2445	500
1	2507	501
1	2542	502
1	2548	503
1	2520	504
1	2480	505
1	2430	506
1	2392	507
1	2377	508
1	2368	509
1	2367	510
1	2385	511
1	2401	512
1	2408	513
1	2415	514
1	2432	515
1	2484	516
1	2547	517
1	2626	518
1	2691	519
1	2753	520
1	2792	521
1	2799	522
1	2767	523
1	2711	524
1	2624	525
1	2513	526
1	2379	527
1	2257	528
1	2147	529
1	2067	530
1	2000	531
1	1961	532
1	1959	533
1	1995	534
1	2079	535
1	2184	536
1	2301	537
1	2404	538
1	2513	539
1	1899	560
1	1922	561
1	1924	562
1	1918	563
1	1895	564
1	1884	565
1	1873	566
1	1860	567
1	1837	568
1	1791	569
1	1743	570
1	1705	571
1	1693	572
1	1692	573
1	1693	574
1	1699	575
1	1715	576
1	1725	577
1	1733	578
1	1733	579
1	2604	540
1	2704	541
1	2791	542
1	2857	543
1	2895	544
1	2896	545
1	2839	546
1	2735	547
1	2601	548
1	2461	549
1	2314	550
1	2163	551
1	2035	552
1	1939	553
1	1866	554
1	1822	555
1	1814	556
1	1818	557
1	1835	558
1	1868	559
1	1729	580
1	1728	581
1	1724	582
1	1712	583
1	1685	584
1	1650	585
1	1633	586
1	1615	587
1	1581	588
1	1543	589
1	1515	590
1	1499	591
1	1483	592
1	1462	593
1	1445	594
1	1458	595
1	1503	596
1	1557	597
1	1625	598
1	1685	599
1	1739	600
1	1792	601
1	1841	602
1	1860	603
1	1863	604
1	1847	605
1	1823	606
1	1782	607
1	1721	608
1	1642	609
1	1568	610
1	1514	611
1	1468	612
1	1424	613
1	1384	614
1	1368	615
1	1372	616
1	1400	617
1	1430	618
1	1466	619
1	1513	620
1	1541	621
1	1546	622
1	1541	623
1	1518	624
1	1476	625
1	1420	626
1	1340	627
1	1266	628
1	1174	629
1	1095	630
1	1037	631
1	1014	632
1	996	633
1	996	634
1	1004	635
1	1007	636
1	1006	637
1	1005	638
1	1008	639
1	1013	640
1	1011	641
1	1009	642
1	1022	643
1	1049	644
1	1071	645
1	1099	646
1	1123	647
1	1122	648
1	1092	649
1	1040	650
1	979	651
1	917	652
1	874	653
1	848	654
1	845	655
1	864	656
1	900	657
1	935	658
1	944	659
1	936	660
1	928	661
1	932	662
1	952	663
1	978	664
1	994	665
1	1016	666
1	1031	667
1	1044	668
1	1032	669
1	1008	670
1	970	671
1	914	672
1	849	673
1	801	674
1	796	675
1	826	676
1	879	677
1	937	678
1	1005	679
1	1076	680
1	1160	681
1	1241	682
1	1309	683
1	1353	684
1	1370	685
1	1379	686
1	1399	687
1	1430	688
1	1458	689
1	1478	690
1	1468	691
1	1438	692
1	1404	693
1	1384	694
1	1372	695
1	1341	696
1	1289	697
1	1240	698
1	1206	699
1	1205	700
1	1220	701
1	1268	702
1	1337	703
1	1411	704
1	1467	705
1	1494	706
1	1502	707
1	1494	708
1	1476	709
1	1464	710
1	1476	711
1	1476	712
1	1464	713
1	1435	714
1	1410	715
1	1418	716
1	1450	717
1	1507	718
1	1574	719
1	1642	720
1	1693	721
1	1736	722
1	1772	723
1	1793	724
1	1777	725
1	1721	726
1	1643	727
1	1559	728
1	1484	729
1	1432	730
1	1395	731
1	1369	732
1	1356	733
1	1351	734
1	1343	735
1	1337	736
1	1332	737
1	1328	738
1	1314	739
1	1285	740
1	1263	741
1	1249	742
1	1265	743
1	1295	744
1	1330	745
1	1346	746
1	1355	747
1	1350	748
1	1351	749
1	1346	750
1	1335	751
1	1319	752
1	1305	753
1	1283	754
1	1260	755
1	1239	756
1	1218	757
1	1209	758
1	1206	759
1	1215	760
1	1228	761
1	1242	762
1	1275	763
1	1330	764
1	1405	765
1	1468	766
1	1510	767
1	1542	768
1	1559	769
1	1571	770
1	1580	771
1	1581	772
1	1567	773
1	1543	774
1	1532	775
1	1541	776
1	1559	777
1	1584	778
1	1607	779
1	1623	780
1	1631	781
1	1634	782
1	1640	783
1	1648	784
1	1636	785
1	1610	786
1	1580	787
1	1541	788
1	1494	789
1	1448	790
1	1398	791
1	1346	792
1	1319	793
1	1295	794
1	1269	795
1	1241	796
1	1202	797
1	1151	798
1	1098	799
1	1053	800
1	1005	801
1	940	802
1	873	803
1	801	804
1	756	805
1	723	806
1	703	807
1	704	808
1	708	809
1	722	810
1	748	811
1	795	812
1	855	813
1	923	814
1	999	815
1	1080	816
1	1162	817
1	1239	818
1	1315	819
1	1398	820
1	1464	821
1	1539	822
1	1629	823
1	1703	824
1	1760	825
1	1808	826
1	1842	827
1	1869	828
1	1886	829
1	1873	830
1	1843	831
1	1791	832
1	1738	833
1	1688	834
1	1657	835
1	1638	836
1	1631	837
1	1610	838
1	1587	839
1	1571	840
1	1554	841
1	1555	842
1	1565	843
1	1576	844
1	1593	845
1	1616	846
1	1647	847
1	1682	848
1	1710	849
1	1737	850
1	1764	851
1	1799	852
1	1841	853
1	1864	854
1	1881	855
1	1893	856
1	1895	857
1	1907	858
1	1918	859
1	1922	860
1	1922	861
1	1921	862
1	1922	863
1	1899	864
1	1888	865
1	1873	866
1	1859	867
1	1855	868
1	1847	869
1	1843	870
1	1832	871
1	1827	872
1	1814	873
1	1783	874
1	1751	875
1	1734	876
1	1725	877
1	1727	878
1	1719	879
1	1703	880
1	1671	881
1	1635	882
1	1600	883
1	1555	884
1	1500	885
1	1449	886
1	1400	887
1	1356	888
1	1319	889
1	1292	890
1	1265	891
1	1230	892
1	1196	893
1	1158	894
1	1132	895
1	1109	896
1	1104	897
1	1133	898
1	1188	899
1	1268	900
1	1346	901
1	1411	902
1	1466	903
1	1518	904
1	1569	905
1	1616	906
1	1646	907
1	1652	908
1	1634	909
1	1594	910
1	1530	911
1	1476	912
1	1427	913
1	1400	914
1	1384	915
1	1393	916
1	1412	917
1	1437	918
1	1467	919
1	1501	920
1	1538	921
1	1574	922
1	1602	923
1	1610	924
1	1611	925
1	1609	926
1	1603	927
1	1605	928
1	1605	929
1	1606	930
1	1613	931
1	1647	932
1	1665	933
1	1692	934
1	1722	935
1	1756	936
1	1791	937
1	1837	938
1	1875	939
1	1909	940
1	1935	941
1	1953	942
1	1948	943
1	1922	944
1	1869	945
1	1790	946
1	1704	947
1	1623	948
1	1557	949
1	1525	950
1	1521	951
1	1544	952
1	1575	953
1	1593	954
1	1619	955
1	1649	956
1	1678	957
1	1718	958
1	1751	959
1	1791	960
1	1843	961
1	1896	962
1	1953	963
1	2014	964
1	2079	965
1	2130	966
1	2161	967
1	2179	968
1	2183	969
1	2192	970
1	2209	971
1	2235	972
1	2258	973
1	2285	974
1	2327	975
1	2388	976
1	2456	977
1	2515	978
1	2571	979
1	2630	980
1	2660	981
1	2661	982
1	2637	983
1	2581	984
1	2519	985
1	2440	986
1	2332	987
1	2219	988
1	2103	989
1	1984	990
1	1881	991
1	1801	992
1	1751	993
1	1736	994
1	1738	995
1	1764	996
1	1803	997
1	1845	998
1	1869	999
1	1896	1000
1	1933	1001
1	1974	1002
1	2029	1003
1	2072	1004
1	2093	1005
1	2084	1006
1	2067	1007
1	2054	1008
1	2026	1009
1	1981	1010
1	1927	1011
1	1890	1012
1	1868	1013
1	1856	1014
1	1855	1015
1	1857	1016
1	1869	1017
1	1886	1018
1	1871	1019
1	1450	1040
1	1436	1041
1	1437	1042
1	1463	1043
1	1494	1044
1	1530	1045
1	1571	1046
1	1595	1047
1	1592	1048
1	1584	1049
1	1561	1050
1	1542	1051
1	1532	1052
1	1538	1053
1	1576	1054
1	1647	1055
1	1746	1056
1	1853	1057
1	1941	1058
1	2017	1059
1	1853	1020
1	1837	1021
1	1829	1022
1	1832	1023
1	1841	1024
1	1851	1025
1	1859	1026
1	1872	1027
1	1880	1028
1	1868	1029
1	1828	1030
1	1765	1031
1	1708	1032
1	1660	1033
1	1636	1034
1	1611	1035
1	1590	1036
1	1542	1037
1	1503	1038
1	1467	1039
1	2087	1060
1	2131	1061
1	2156	1062
1	2188	1063
1	2210	1064
1	2210	1065
1	2181	1066
1	2134	1067
1	2097	1068
1	2079	1069
1	2084	1070
1	2105	1071
1	2128	1072
1	2142	1073
1	2156	1074
1	2163	1075
1	2171	1076
1	2176	1077
1	2192	1078
1	2210	1079
1	2215	1080
1	2206	1081
1	2182	1082
1	2155	1083
1	2121	1084
1	2084	1085
1	2048	1086
1	2014	1087
1	1968	1088
1	1895	1089
1	1795	1090
1	1691	1091
1	1589	1092
1	1520	1093
1	1474	1094
1	1454	1095
1	1452	1096
1	1474	1097
1	1512	1098
1	1556	1099
1	1606	1100
1	1655	1101
1	1701	1102
1	1746	1103
1	1778	1104
1	1803	1105
1	1815	1106
1	1800	1107
1	1779	1108
1	1747	1109
1	1733	1110
1	1741	1111
1	1775	1112
1	1832	1113
1	1895	1114
1	1961	1115
1	2039	1116
1	2105	1117
1	2138	1118
1	2129	1119
1	2107	1120
1	2084	1121
1	2079	1122
1	2082	1123
1	2079	1124
1	2079	1125
1	2096	1126
1	2116	1127
1	2132	1128
1	2151	1129
1	2159	1130
1	2156	1131
1	2161	1132
1	2171	1133
1	2179	1134
1	2170	1135
1	2136	1136
1	2102	1137
1	2061	1138
1	2034	1139
1	2012	1140
1	1982	1141
1	1957	1142
1	1922	1143
1	1886	1144
1	1854	1145
1	1823	1146
1	1791	1147
1	1762	1148
1	1723	1149
1	1699	1150
1	1689	1151
1	1696	1152
1	1716	1153
1	1731	1154
1	1744	1155
1	1764	1156
1	1791	1157
1	1826	1158
1	1879	1159
1	1933	1160
1	1962	1161
1	1973	1162
1	1948	1163
1	1895	1164
1	1841	1165
1	1792	1166
1	1772	1167
1	1760	1168
1	1744	1169
1	1738	1170
1	1729	1171
1	1716	1172
1	1716	1173
1	1724	1174
1	1739	1175
1	1760	1176
1	1791	1177
1	1843	1178
1	1899	1179
1	1743	1200
1	1729	1201
1	1710	1202
1	1690	1203
1	1676	1204
1	1672	1205
1	1674	1206
1	1677	1207
1	1667	1208
1	1653	1209
1	1647	1210
1	1638	1211
1	1631	1212
1	1620	1213
1	1599	1214
1	1582	1215
1	1575	1216
1	1576	1217
1	1584	1218
1	1603	1219
1	1971	1180
1	2029	1181
1	2075	1182
1	2123	1183
1	2157	1184
1	2162	1185
1	2133	1186
1	2076	1187
1	1988	1188
1	1899	1189
1	1811	1190
1	1731	1191
1	1680	1192
1	1642	1193
1	1623	1194
1	1636	1195
1	1665	1196
1	1698	1197
1	1738	1198
1	1749	1199
1	1616	1220
1	1620	1221
1	1609	1222
1	1594	1223
1	1582	1224
1	1581	1225
1	1559	1226
1	1520	1227
1	1469	1228
1	1404	1229
1	1338	1230
1	1273	1231
1	1198	1232
1	1174	1233
1	1157	1234
1	1145	1235
1	1141	1236
1	1147	1237
1	1162	1238
1	1179	1239
1	1195	1240
1	1201	1241
1	1193	1242
1	1185	1243
1	1173	1244
1	1162	1245
1	1162	1246
1	1174	1247
1	1186	1248
1	1200	1249
1	1214	1250
1	1217	1251
1	1226	1252
1	1243	1253
1	1293	1254
1	1391	1255
1	1521	1256
1	1656	1257
1	1791	1258
1	1887	1259
1	1945	1260
1	1953	1261
1	1934	1262
1	1887	1263
1	1824	1264
1	1755	1265
1	1712	1266
1	1685	1267
1	1668	1268
1	1659	1269
1	1660	1270
1	1680	1271
1	1706	1272
1	1743	1273
1	1785	1274
1	1832	1275
1	1880	1276
1	1926	1277
1	1958	1278
1	1973	1279
1	1972	1280
1	1964	1281
1	1948	1282
1	1934	1283
1	1913	1284
1	1896	1285
1	1873	1286
1	1860	1287
1	1877	1288
1	1913	1289
1	1974	1290
1	2041	1291
1	2102	1292
1	2156	1293
1	2204	1294
1	2255	1295
1	2291	1296
1	2314	1297
1	2310	1298
1	2280	1299
1	2261	1300
1	2233	1301
1	2181	1302
1	2121	1303
1	2057	1304
1	1987	1305
1	1913	1306
1	1847	1307
1	1778	1308
1	1701	1309
1	1623	1310
1	1535	1311
1	1437	1312
1	1346	1313
1	1279	1314
1	1232	1315
1	1197	1316
1	1184	1317
1	1189	1318
1	1217	1319
1	1265	1320
1	1319	1321
1	1370	1322
1	1423	1323
1	1451	1324
1	1472	1325
1	1496	1326
1	1526	1327
1	1554	1328
1	1579	1329
1	1595	1330
1	1598	1331
1	1582	1332
1	1554	1333
1	1529	1334
1	1508	1335
1	1489	1336
1	1446	1337
1	1399	1338
1	1349	1339
1	1320	1340
1	1295	1341
1	1283	1342
1	1281	1343
1	1293	1344
1	1323	1345
1	1361	1346
1	1402	1347
1	1437	1348
1	1458	1349
1	1476	1350
1	1482	1351
1	1481	1352
1	1466	1353
1	1449	1354
1	1435	1355
1	1423	1356
1	1426	1357
1	1450	1358
1	1482	1359
1	1521	1360
1	1554	1361
1	1571	1362
1	1571	1363
1	1542	1364
1	1495	1365
1	1440	1366
1	1381	1367
1	1328	1368
1	1287	1369
1	1273	1370
1	1277	1371
1	1289	1372
1	1305	1373
1	1332	1374
1	1373	1375
1	1425	1376
1	1476	1377
1	1531	1378
1	1585	1379
1	1631	1380
1	1661	1381
1	1675	1382
1	1673	1383
1	1665	1384
1	1660	1385
1	1659	1386
1	1656	1387
1	1632	1388
1	1579	1389
1	1503	1390
1	1427	1391
1	1350	1392
1	1292	1393
1	1240	1394
1	1204	1395
1	1188	1396
1	1183	1397
1	1188	1398
1	1193	1399
1	1204	1400
1	1217	1401
1	1241	1402
1	1268	1403
1	1281	1404
1	1293	1405
1	1293	1406
1	1283	1407
1	1278	1408
1	1269	1409
1	1269	1410
1	1281	1411
1	1296	1412
1	1305	1413
1	1310	1414
1	1318	1415
1	1312	1416
1	1297	1417
1	1281	1418
1	1261	1419
1	1243	1420
1	1223	1421
1	1191	1422
1	1152	1423
1	1110	1424
1	1070	1425
1	1030	1426
1	996	1427
1	963	1428
1	941	1429
1	927	1430
1	913	1431
1	892	1432
1	869	1433
1	866	1434
1	889	1435
1	927	1436
1	978	1437
1	1036	1438
1	1107	1439
1	1178	1440
1	1255	1441
1	1312	1442
1	1353	1443
1	1364	1444
1	1346	1445
1	1312	1446
1	1268	1447
1	1229	1448
1	1194	1449
1	1162	1450
1	1147	1451
1	1147	1452
1	1166	1453
1	1198	1454
1	1241	1455
1	1287	1456
1	1337	1457
1	1383	1458
1	1422	1459
1	1440	1460
1	1451	1461
1	1455	1462
1	1450	1463
1	1438	1464
1	1431	1465
1	1424	1466
1	1417	1467
1	1398	1468
1	1358	1469
1	1321	1470
1	1284	1471
1	1254	1472
1	1237	1473
1	1238	1474
1	1253	1475
1	1287	1476
1	1332	1477
1	1382	1478
1	1427	1479
1	1463	1480
1	1489	1481
1	1500	1482
1	1504	1483
1	1491	1484
1	1472	1485
1	1451	1486
1	1438	1487
1	1421	1488
1	1395	1489
1	1363	1490
1	1338	1491
1	1317	1492
1	1297	1493
1	1278	1494
1	1267	1495
1	1267	1496
1	1279	1497
1	1305	1498
1	1333	1499
1	1384	1500
1	1448	1501
1	1506	1502
1	1558	1503
1	1602	1504
1	1643	1505
1	1688	1506
1	1724	1507
1	1743	1508
1	1743	1509
1	1735	1510
1	1718	1511
1	1725	1512
1	1763	1513
1	1819	1514
1	1891	1515
1	1976	1516
1	2066	1517
1	2137	1518
1	2179	1519
1	2189	1520
1	2183	1521
1	2161	1522
1	2123	1523
1	2063	1524
1	1999	1525
1	1926	1526
1	1851	1527
1	1778	1528
1	1724	1529
1	1695	1530
1	1688	1531
1	1711	1532
1	1744	1533
1	1817	1534
1	1895	1535
1	1970	1536
1	2035	1537
1	2084	1538
1	2132	1539
1	1871	1580
1	1910	1581
1	1927	1582
1	1926	1583
1	1908	1584
1	1891	1585
1	1877	1586
1	1873	1587
1	1882	1588
1	1890	1589
1	1904	1590
1	1927	1591
1	1970	1592
1	2016	1593
1	2067	1594
1	2126	1595
1	2182	1596
1	2247	1597
1	2315	1598
1	2372	1599
1	2170	1540
1	2195	1541
1	2205	1542
1	2188	1543
1	2156	1544
1	2105	1545
1	2061	1546
1	2010	1547
1	1975	1548
1	1952	1549
1	1957	1550
1	1984	1551
1	2024	1552
1	2066	1553
1	2104	1554
1	2132	1555
1	2157	1556
1	2183	1557
1	2211	1558
1	2219	1559
1	2207	1560
1	2192	1561
1	2179	1562
1	2157	1563
1	2132	1564
1	2102	1565
1	2062	1566
1	2021	1567
1	1969	1568
1	1895	1569
1	1817	1570
1	1737	1571
1	1671	1572
1	1634	1573
1	1616	1574
1	1618	1575
1	1647	1576
1	1695	1577
1	1754	1578
1	1818	1579
1	2423	1600
1	2453	1601
1	2461	1602
1	2469	1603
1	2461	1604
1	2458	1605
1	2462	1606
1	2462	1607
1	2458	1608
1	2454	1609
1	2444	1610
1	2435	1611
1	2428	1612
1	2436	1613
1	2445	1614
1	2471	1615
1	2499	1616
1	2524	1617
1	2560	1618
1	2579	1619
1	2582	1620
1	2576	1621
1	2555	1622
1	2520	1623
1	2480	1624
1	2419	1625
1	2346	1626
1	2266	1627
1	2182	1628
1	2105	1629
1	2039	1630
1	1990	1631
1	1962	1632
1	1948	1633
1	1958	1634
1	1966	1635
1	1997	1636
1	2017	1637
1	2034	1638
1	2045	1639
1	2055	1640
1	2065	1641
1	2079	1642
1	2090	1643
1	2085	1644
1	2079	1645
1	2066	1646
1	2040	1647
1	2007	1648
1	1972	1649
1	1944	1650
1	1926	1651
1	1913	1652
1	1909	1653
1	1913	1654
1	1924	1655
1	1950	1656
1	1986	1657
1	2026	1658
1	2065	1659
1	2106	1660
1	2152	1661
1	2201	1662
1	2258	1663
1	2281	1664
1	2279	1665
1	2248	1666
1	2185	1667
1	2107	1668
1	2025	1669
1	1946	1670
1	1871	1671
1	1814	1672
1	1764	1673
1	1730	1674
1	1725	1675
1	1738	1676
1	1759	1677
1	1791	1678
1	1824	1679
1	2238	1700
1	2264	1701
1	2263	1702
1	2237	1703
1	2185	1704
1	2132	1705
1	2069	1706
1	2003	1707
1	1948	1708
1	1890	1709
1	1832	1710
1	1773	1711
1	1737	1712
1	1715	1713
1	1717	1714
1	1738	1715
1	1773	1716
1	1832	1717
1	1890	1718
1	1935	1719
1	1843	1680
1	1849	1681
1	1836	1682
1	1809	1683
1	1764	1684
1	1723	1685
1	1689	1686
1	1664	1687
1	1660	1688
1	1665	1689
1	1684	1690
1	1713	1691
1	1751	1692
1	1799	1693
1	1854	1694
1	1913	1695
1	1974	1696
1	2048	1697
1	2118	1698
1	2183	1699
1	1974	1720
1	2004	1721
1	2008	1722
1	2006	1723
1	1974	1724
1	1940	1725
1	1900	1726
1	1859	1727
1	1818	1728
1	1779	1729
1	1746	1730
1	1719	1731
1	1715	1732
1	1726	1733
1	1751	1734
1	1789	1735
1	1839	1736
1	1885	1737
1	1926	1738
1	1958	1739
1	1976	1740
1	1985	1741
1	1981	1742
1	1956	1743
1	1922	1744
1	1882	1745
1	1841	1746
1	1799	1747
1	1765	1748
1	1733	1749
1	1712	1750
1	1700	1751
1	1697	1752
1	1707	1753
1	1713	1754
1	1723	1755
1	1728	1756
1	1729	1757
1	1733	1758
1	1742	1759
1	1770	1760
1	1803	1761
1	1840	1762
1	1863	1763
1	1872	1764
1	1884	1765
1	1894	1766
1	1891	1767
1	1895	1768
1	1896	1769
1	1908	1770
1	1922	1771
1	1940	1772
1	1951	1773
1	1966	1774
1	1989	1775
1	2030	1776
1	2087	1777
1	2145	1778
1	2198	1779
1	2262	1780
1	2320	1781
1	2369	1782
1	2417	1783
1	2423	1784
1	2415	1785
1	2392	1786
1	2355	1787
1	2309	1788
1	2273	1789
1	2234	1790
1	2183	1791
1	2153	1792
1	2129	1793
1	2120	1794
1	2133	1795
1	2168	1796
1	2214	1797
1	2283	1798
1	2338	1799
1	2391	1800
1	2435	1801
1	2467	1802
1	2473	1803
1	2452	1804
1	2394	1805
1	2315	1806
1	2222	1807
1	2137	1808
1	2057	1809
1	1998	1810
1	1949	1811
1	1929	1812
1	1937	1813
1	1958	1814
1	1999	1815
1	2053	1816
1	2118	1817
1	2183	1818
1	2255	1819
1	2310	1820
1	2348	1821
1	2372	1822
1	2379	1823
1	2364	1824
1	2344	1825
1	2323	1826
1	2310	1827
1	2314	1828
1	2323	1829
1	2340	1830
1	2356	1831
1	2379	1832
1	2412	1833
1	2431	1834
1	2442	1835
1	2445	1836
1	2445	1837
1	2444	1838
1	2431	1839
1	2408	1840
1	2375	1841
1	2332	1842
1	2290	1843
1	2242	1844
1	2197	1845
1	2160	1846
1	2129	1847
1	2096	1848
1	2060	1849
1	2026	1850
1	2007	1851
1	1996	1852
1	2000	1853
1	2004	1854
1	2019	1855
1	2040	1856
1	2057	1857
1	2077	1858
1	2084	1859
1	2093	1860
1	2100	1861
1	2104	1862
1	2109	1863
1	2115	1864
1	2110	1865
1	2093	1866
1	2061	1867
1	2013	1868
1	1975	1869
1	1943	1870
1	1914	1871
1	1895	1872
1	1893	1873
1	1899	1874
1	1921	1875
1	1949	1876
1	1993	1877
1	2026	1878
1	2060	1879
1	2084	1880
1	2082	1881
1	2066	1882
1	2034	1883
1	1991	1884
1	1940	1885
1	1882	1886
1	1827	1887
1	1772	1888
1	1724	1889
1	1693	1890
1	1674	1891
1	1675	1892
1	1691	1893
1	1720	1894
1	1765	1895
1	1827	1896
1	1887	1897
1	1948	1898
1	1996	1899
1	2029	1900
1	2048	1901
1	2052	1902
1	2052	1903
1	2039	1904
1	2019	1905
1	1987	1906
1	1948	1907
1	1899	1908
1	1857	1909
1	1817	1910
1	1773	1911
1	1738	1912
1	1700	1913
1	1661	1914
1	1647	1915
1	1647	1916
1	1661	1917
1	1704	1918
1	1751	1919
1	1813	1920
1	1862	1921
1	1906	1922
1	1952	1923
1	1991	1924
1	2018	1925
1	2027	1926
1	2022	1927
1	2003	1928
1	1985	1929
1	1972	1930
1	1967	1931
1	1969	1932
1	1973	1933
1	1981	1934
1	1975	1935
1	1978	1936
1	1974	1937
1	1972	1938
1	1968	1939
1	1967	1940
1	1974	1941
1	1985	1942
1	1996	1943
1	1991	1944
1	1985	1945
1	1964	1946
1	1932	1947
1	1889	1948
1	1841	1949
1	1781	1950
1	1737	1951
1	1698	1952
1	1680	1953
1	1674	1954
1	1679	1955
1	1690	1956
1	1712	1957
1	1738	1958
1	1756	1959
1	1773	1960
1	1790	1961
1	1800	1962
1	1812	1963
1	1799	1964
1	1791	1965
1	1782	1966
1	1774	1967
1	1757	1968
1	1739	1969
1	1726	1970
1	1720	1971
1	1724	1972
1	1729	1973
1	1729	1974
1	1739	1975
1	1762	1976
1	1791	1977
1	1831	1978
1	1863	1979
1	1890	1980
1	1908	1981
1	1919	1982
1	1917	1983
1	1904	1984
1	1887	1985
1	1862	1986
1	1831	1987
1	1780	1988
1	1742	1989
1	1715	1990
1	1697	1991
1	1685	1992
1	1686	1993
1	1686	1994
1	1701	1995
1	1707	1996
1	1702	1997
1	1697	1998
1	1699	1999
1	1703	2000
1	1706	2001
1	1703	2002
1	1691	2003
1	1662	2004
1	1634	2005
1	1607	2006
1	1581	2007
1	1569	2008
1	1544	2009
1	1512	2010
1	1476	2011
1	1440	2012
1	1412	2013
1	1400	2014
1	1398	2015
1	1401	2016
1	1410	2017
1	1423	2018
1	1445	2019
1	1481	2020
1	1517	2021
1	1550	2022
1	1580	2023
1	1589	2024
1	1589	2025
1	1579	2026
1	1554	2027
1	1521	2028
1	1484	2029
1	1451	2030
1	1423	2031
1	1415	2032
1	1422	2033
1	1435	2034
1	1450	2035
1	1475	2036
1	1499	2037
1	1530	2038
1	1561	2039
1	1594	2040
1	1626	2041
1	1658	2042
1	1675	2043
1	1690	2044
1	1698	2045
1	1692	2046
1	1669	2047
1	1625	2048
1	1561	2049
1	1503	2050
1	1453	2051
1	1423	2052
1	1412	2053
1	1422	2054
1	1440	2055
1	1474	2056
1	1512	2057
1	1564	2058
1	1624	2059
1	1679	2060
1	1727	2061
1	1764	2062
1	1791	2063
1	1791	2064
1	1789	2065
1	1777	2066
1	1760	2067
1	1742	2068
1	1714	2069
1	1697	2070
1	1688	2071
1	1687	2072
1	1697	2073
1	1707	2074
1	1723	2075
1	1731	2076
1	1744	2077
1	1756	2078
1	1765	2079
1	1790	2080
1	1817	2081
1	1843	2082
1	1872	2083
1	1898	2084
1	1926	2085
1	1948	2086
1	1966	2087
1	1972	2088
1	1974	2089
1	1972	2090
1	1970	2091
1	1962	2092
1	1944	2093
1	1913	2094
1	1873	2095
1	1843	2096
1	1814	2097
1	1790	2098
1	1765	2099
1	1749	2100
1	1738	2101
1	1728	2102
1	1713	2103
1	1696	2104
1	1669	2105
1	1631	2106
1	1587	2107
1	1554	2108
1	1529	2109
1	1518	2110
1	1524	2111
1	1538	2112
1	1569	2113
1	1605	2114
1	1644	2115
1	1688	2116
1	1738	2117
1	1787	2118
1	1838	2119
1	1881	2120
1	1916	2121
1	1936	2122
1	1938	2123
1	1913	2124
1	1874	2125
1	1824	2126
1	1763	2127
1	1700	2128
1	1633	2129
1	1575	2130
1	1530	2131
1	1499	2132
1	1476	2133
1	1476	2134
1	1501	2135
1	1539	2136
1	1593	2137
1	1669	2138
1	1750	2139
1	1837	2140
1	1920	2141
1	2000	2142
1	2063	2143
1	2106	2144
1	2134	2145
1	2156	2146
1	2171	2147
1	2170	2148
1	2165	2149
1	2157	2150
1	2148	2151
1	2149	2152
1	2157	2153
1	2179	2154
1	2210	2155
1	2251	2156
1	2284	2157
1	2314	2158
1	2323	2159
1	2311	2160
1	2284	2161
1	2246	2162
1	2201	2163
1	2156	2164
1	2106	2165
1	2054	2166
1	2000	2167
1	1944	2168
1	1878	2169
1	1827	2170
1	1782	2171
1	1760	2172
1	1760	2173
1	1766	2174
1	1789	2175
1	1817	2176
1	1852	2177
1	1893	2178
1	1939	2179
1	1987	2180
1	2026	2181
1	2061	2182
1	2075	2183
1	2052	2184
1	2001	2185
1	1927	2186
1	1850	2187
1	1780	2188
1	1723	2189
1	1681	2190
1	1649	2191
1	1634	2192
1	1629	2193
1	1629	2194
1	1634	2195
1	1654	2196
1	1686	2197
1	1719	2198
1	1747	2199
1	1779	2200
1	1801	2201
1	1815	2202
1	1814	2203
1	1790	2204
1	1756	2205
1	1720	2206
1	1686	2207
1	1655	2208
1	1632	2209
1	1613	2210
1	1613	2211
1	1628	2212
1	1643	2213
1	1643	2214
1	1634	2215
1	1616	2216
1	1598	2217
1	1595	2218
1	1593	2219
1	1594	2220
1	1594	2221
1	1585	2222
1	1567	2223
1	1530	2224
1	1481	2225
1	1422	2226
1	1350	2227
1	1291	2228
1	1229	2229
1	1188	2230
1	1170	2231
1	1173	2232
1	1196	2233
1	1243	2234
1	1297	2235
1	1367	2236
1	1438	2237
1	1505	2238
1	1568	2239
1	1623	2240
1	1663	2241
1	1686	2242
1	1698	2243
1	1688	2244
1	1672	2245
1	1644	2246
1	1602	2247
1	1551	2248
1	1494	2249
1	1445	2250
1	1412	2251
1	1382	2252
1	1372	2253
1	1371	2254
1	1382	2255
1	1418	2256
1	1465	2257
1	1517	2258
1	1567	2259
1	1613	2260
1	1657	2261
1	1691	2262
1	1724	2263
1	1724	2264
1	1708	2265
1	1685	2266
1	1660	2267
1	1643	2268
1	1619	2269
1	1598	2270
1	1580	2271
1	1567	2272
1	1564	2273
1	1563	2274
1	1580	2275
1	1607	2276
1	1646	2277
1	1692	2278
1	1734	2279
1	1422	2300
1	1459	2301
1	1489	2302
1	1515	2303
1	1526	2304
1	1535	2305
1	1542	2306
1	1553	2307
1	1566	2308
1	1571	2309
1	1566	2310
1	1550	2311
1	1530	2312
1	1515	2313
1	1503	2314
1	1497	2315
1	1492	2316
1	1497	2317
1	1507	2318
1	1519	2319
1	1767	2280
1	1798	2281
1	1827	2282
1	1843	2283
1	1843	2284
1	1821	2285
1	1778	2286
1	1733	2287
1	1674	2288
1	1620	2289
1	1567	2290
1	1513	2291
1	1456	2292
1	1409	2293
1	1372	2294
1	1346	2295
1	1334	2296
1	1335	2297
1	1350	2298
1	1380	2299
1	1538	2320
1	1554	2321
1	1559	2322
1	1566	2323
1	1554	2324
1	1532	2325
1	1507	2326
1	1477	2327
1	1451	2328
1	1433	2329
1	1424	2330
1	1422	2331
1	1427	2332
1	1437	2333
1	1438	2334
1	1439	2335
1	1440	2336
1	1447	2337
1	1464	2338
1	1488	2339
1	1515	2340
1	1541	2341
1	1576	2342
1	1598	2343
1	1614	2344
1	1629	2345
1	1634	2346
1	1636	2347
1	1634	2348
1	1618	2349
1	1597	2350
1	1579	2351
1	1557	2352
1	1548	2353
1	1539	2354
1	1536	2355
1	1542	2356
1	1563	2357
1	1591	2358
1	1618	2359
1	1650	2360
1	1683	2361
1	1702	2362
1	1725	2363
1	1733	2364
1	1731	2365
1	1712	2366
1	1686	2367
1	1665	2368
1	1636	2369
1	1609	2370
1	1592	2371
1	1577	2372
1	1575	2373
1	1582	2374
1	1601	2375
1	1626	2376
1	1660	2377
1	1699	2378
1	1736	2379
1	1778	2380
1	1816	2381
1	1843	2382
1	1873	2383
1	1895	2384
1	1911	2385
1	1922	2386
1	1922	2387
1	1922	2388
1	1905	2389
1	1883	2390
1	1859	2391
1	1834	2392
1	1811	2393
1	1787	2394
1	1776	2395
1	1773	2396
1	1777	2397
1	1789	2398
1	1799	2399
1	1817	2400
1	1828	2401
1	1834	2402
1	1829	2403
1	1812	2404
1	1780	2405
1	1751	2406
1	1719	2407
1	1686	2408
1	1654	2409
1	1627	2410
1	1610	2411
1	1611	2412
1	1643	2413
1	1680	2414
1	1736	2415
1	1799	2416
1	1864	2417
1	1913	2418
1	1939	2419
1	1942	2420
1	1922	2421
1	1891	2422
1	1848	2423
1	1790	2424
1	1738	2425
1	1680	2426
1	1611	2427
1	1551	2428
1	1478	2429
1	1422	2430
1	1362	2431
1	1319	2432
1	1289	2433
1	1269	2434
1	1268	2435
1	1279	2436
1	1299	2437
1	1332	2438
1	1372	2439
1	1424	2440
1	1472	2441
1	1520	2442
1	1559	2443
1	1581	2444
1	1581	2445
1	1569	2446
1	1553	2447
1	1527	2448
1	1499	2449
1	1467	2450
1	1432	2451
1	1395	2452
1	1351	2453
1	1319	2454
1	1306	2455
1	1297	2456
1	1292	2457
1	1292	2458
1	1285	2459
1	1281	2460
1	1280	2461
1	1283	2462
1	1285	2463
1	1278	2464
1	1265	2465
1	1242	2466
1	1229	2467
1	1218	2468
1	1213	2469
1	1212	2470
1	1216	2471
1	1230	2472
1	1244	2473
1	1252	2474
1	1254	2475
1	1257	2476
1	1266	2477
1	1271	2478
1	1276	2479
1	1282	2480
1	1278	2481
1	1271	2482
1	1265	2483
1	1246	2484
1	1232	2485
1	1214	2486
1	1193	2487
1	1178	2488
1	1171	2489
1	1162	2490
1	1161	2491
1	1158	2492
1	1160	2493
1	1170	2494
1	1184	2495
1	1197	2496
1	1216	2497
1	1235	2498
1	1251	2499
1	1270	2500
1	1295	2501
1	1319	2502
1	1340	2503
1	1346	2504
1	1348	2505
1	1335	2506
1	1310	2507
1	1268	2508
1	1220	2509
1	1174	2510
1	1134	2511
1	1101	2512
1	1085	2513
1	1084	2514
1	1098	2515
1	1118	2516
1	1150	2517
1	1189	2518
1	1226	2519
1	1250	2520
1	1262	2521
1	1263	2522
1	1258	2523
1	1250	2524
1	1246	2525
1	1243	2526
1	1241	2527
1	1241	2528
1	1242	2529
1	1240	2530
1	1238	2531
1	1241	2532
1	1242	2533
1	1255	2534
1	1268	2535
1	1293	2536
1	1319	2537
1	1346	2538
1	1372	2539
1	1384	2540
1	1398	2541
1	1395	2542
1	1383	2543
1	1374	2544
1	1360	2545
1	1343	2546
1	1318	2547
1	1288	2548
1	1250	2549
1	1215	2550
1	1192	2551
1	1175	2552
1	1175	2553
1	1188	2554
1	1215	2555
1	1256	2556
1	1294	2557
1	1325	2558
1	1350	2559
1	1366	2560
1	1366	2561
1	1346	2562
1	1323	2563
1	1289	2564
1	1250	2565
1	1210	2566
1	1175	2567
1	1149	2568
1	1136	2569
1	1134	2570
1	1132	2571
1	1138	2572
1	1149	2573
1	1173	2574
1	1202	2575
1	1232	2576
1	1266	2577
1	1302	2578
1	1330	2579
1	1353	2580
1	1372	2581
1	1384	2582
1	1392	2583
1	1392	2584
1	1377	2585
1	1364	2586
1	1344	2587
1	1315	2588
1	1293	2589
1	1268	2590
1	1241	2591
1	1219	2592
1	1210	2593
1	1201	2594
1	1202	2595
1	1212	2596
1	1233	2597
1	1267	2598
1	1294	2599
1	1317	2600
1	1321	2601
1	1319	2602
1	1302	2603
1	1291	2604
1	1273	2605
1	1255	2606
1	1235	2607
1	1215	2608
1	1188	2609
1	1155	2610
1	1116	2611
1	1084	2612
1	1069	2613
1	1071	2614
1	1096	2615
1	1129	2616
1	1170	2617
1	1206	2618
1	1233	2619
1	1006	2640
1	1029	2641
1	1062	2642
1	1086	2643
1	1110	2644
1	1127	2645
1	1140	2646
1	1148	2647
1	1143	2648
1	1129	2649
1	1104	2650
1	1085	2651
1	1070	2652
1	1058	2653
1	1035	2654
1	1017	2655
1	1000	2656
1	990	2657
1	987	2658
1	987	2659
1	1265	2620
1	1291	2621
1	1317	2622
1	1334	2623
1	1345	2624
1	1341	2625
1	1328	2626
1	1310	2627
1	1286	2628
1	1252	2629
1	1215	2630
1	1170	2631
1	1129	2632
1	1097	2633
1	1071	2634
1	1040	2635
1	1020	2636
1	1005	2637
1	1000	2638
1	996	2639
1	992	2660
1	1002	2661
1	1006	2662
1	1006	2663
1	1003	2664
1	995	2665
1	990	2666
1	980	2667
1	973	2668
1	955	2669
1	950	2670
1	951	2671
1	970	2672
1	995	2673
1	1016	2674
1	1030	2675
1	1043	2676
1	1058	2677
1	1067	2678
1	1071	2679
1	1080	2680
1	1090	2681
1	1101	2682
1	1110	2683
1	1109	2684
1	1102	2685
1	1103	2686
1	1102	2687
1	1085	2688
1	1062	2689
1	1049	2690
1	1050	2691
1	1071	2692
1	1107	2693
1	1152	2694
1	1207	2695
1	1261	2696
1	1319	2697
1	1365	2698
1	1399	2699
1	1424	2700
1	1438	2701
1	1449	2702
1	1452	2703
1	1450	2704
1	1438	2705
1	1413	2706
1	1379	2707
1	1345	2708
1	1318	2709
1	1282	2710
1	1241	2711
1	1199	2712
1	1175	2713
1	1152	2714
1	1142	2715
1	1139	2716
1	1142	2717
1	1153	2718
1	1161	2719
1	1167	2720
1	1175	2721
1	1181	2722
1	1184	2723
1	1165	2724
1	1137	2725
1	1110	2726
1	1084	2727
1	1070	2728
1	1049	2729
1	1045	2730
1	1058	2731
1	1099	2732
1	1153	2733
1	1218	2734
1	1283	2735
1	1347	2736
1	1409	2737
1	1475	2738
1	1535	2739
1	1591	2740
1	1644	2741
1	1695	2742
1	1742	2743
1	1782	2744
1	1819	2745
1	1837	2746
1	1844	2747
1	1831	2748
1	1800	2749
1	1752	2750
1	1697	2751
1	1639	2752
1	1580	2753
1	1532	2754
1	1525	2755
1	1531	2756
1	1548	2757
1	1580	2758
1	1619	2759
1	1685	2760
1	1760	2761
1	1831	2762
1	1866	2763
1	1886	2764
1	1896	2765
1	1910	2766
1	1940	2767
1	1975	2768
1	2015	2769
1	2042	2770
1	2043	2771
1	2028	2772
1	2035	2773
1	2065	2774
1	2090	2775
1	2093	2776
1	2093	2777
1	2057	2778
1	1998	2779
1	1995	2780
1	2073	2781
1	2192	2782
1	2387	2783
1	2612	2784
1	2871	2785
1	3130	2786
1	3130	2787
1	3130	2788
1	3130	2789
1	3130	2790
1	3130	2791
1	3130	2792
1	3130	2793
1	3130	2794
1	3130	2795
1	3130	2796
1	3130	2797
1	3130	2798
1	3130	2799
1	3130	2800
1	3130	2801
1	3130	2802
1	3130	2803
1	3130	2804
1	3130	2805
1	3130	2806
1	3130	2807
1	3130	2808
1	3130	2809
1	3130	2810
1	3130	2811
1	3130	2812
1	3130	2813
1	3130	2814
1	3130	2815
1	3130	2816
1	3130	2817
1	3130	2818
1	3130	2819
1	3130	2820
1	3130	2821
1	3130	2822
1	3130	2823
1	3130	2824
1	3130	2825
1	3130	2826
1	3130	2827
1	3130	2828
1	3130	2829
1	3130	2830
1	3130	2831
1	3130	2832
1	3130	2833
1	3130	2834
1	3130	2835
1	3130	2836
1	3130	2837
1	3130	2838
1	3130	2839
1	3130	2840
1	3130	2841
1	3130	2842
1	3130	2843
1	3130	2844
1	3130	2845
1	3130	2846
1	3130	2847
1	3130	2848
1	3130	2849
1	3130	2850
1	3130	2851
1	3130	2852
1	3130	2853
1	3130	2854
1	3130	2855
1	3130	2856
1	3130	2857
1	3130	2858
1	3130	2859
1	3130	2880
1	3130	2881
1	3130	2882
1	3130	2883
1	3130	2884
1	3130	2885
1	3130	2886
1	3130	2887
1	3130	2888
1	3130	2889
1	3130	2890
1	3130	2891
1	3130	2892
1	3130	2893
1	3130	2894
1	3130	2895
1	3130	2896
1	3130	2897
1	3130	2898
1	3130	2899
1	3130	2880
1	3130	2881
1	3130	2882
1	3130	2883
1	3130	2884
1	3130	2885
1	3130	2886
1	3130	2887
1	3130	2888
1	3130	2889
1	3130	2890
1	3130	2891
1	3130	2892
1	3130	2893
1	3130	2894
1	3130	2895
1	3130	2896
1	3130	2897
1	3130	2898
1	3130	2899
1	3130	2900
1	3130	2901
1	3130	2902
1	3130	2903
1	3130	2904
1	3130	2905
1	3113	2906
1	3081	2907
1	3130	2908
1	3130	2909
1	3130	2910
1	3130	2911
1	3130	2912
1	3130	2913
1	3130	2914
1	3130	2915
1	3130	2916
1	3130	2917
1	3130	2918
1	3130	2919
1	3130	2920
1	3130	2921
1	3130	2922
1	3130	2923
1	3130	2924
1	3032	2925
1	2852	2926
1	2688	2927
1	2545	2928
1	2395	2929
1	2263	2930
1	2157	2931
1	2052	2932
1	2003	2933
1	2017	2934
1	2081	2935
1	2195	2936
1	2343	2937
1	2463	2938
1	2552	2939
1	2660	2940
1	2774	2941
1	2866	2942
1	2969	2943
1	3110	2944
1	3130	2945
1	3130	2946
1	3130	2947
1	3130	2948
1	3130	2949
1	3130	2950
1	3130	2951
1	3130	2952
1	3130	2953
1	3130	2954
1	3130	2955
1	3130	2956
1	3124	2957
1	2990	2958
1	2877	2959
1	2764	2960
1	2633	2961
1	2477	2962
1	2233	2963
1	2000	2964
1	1777	2965
1	1581	2966
1	1402	2967
1	1261	2968
1	1154	2969
1	1105	2970
1	1085	2971
1	1081	2972
1	1080	2973
1	1073	2974
1	1071	2975
1	1070	2976
1	1057	2977
1	1026	2978
1	976	2979
1	888	2980
1	787	2981
1	696	2982
1	612	2983
1	511	2984
1	429	2985
1	350	2986
1	279	2987
1	246	2988
1	250	2989
1	286	2990
1	352	2991
1	399	2992
1	453	2993
1	513	2994
1	599	2995
1	705	2996
1	833	2997
1	965	2998
1	1094	2999
1	1184	3000
1	1240	3001
1	1279	3002
1	1299	3003
1	1302	3004
1	1275	3005
1	1240	3006
1	1206	3007
1	1160	3008
1	1085	3009
1	1014	3010
1	952	3011
1	866	3012
1	769	3013
1	680	3014
1	597	3015
1	520	3016
1	476	3017
1	452	3018
1	467	3019
1	512	3020
1	589	3021
1	651	3022
1	699	3023
1	748	3024
1	821	3025
1	914	3026
1	1010	3027
1	1110	3028
1	1184	3029
1	1214	3030
1	1248	3031
1	1279	3032
1	1278	3033
1	1274	3034
1	1245	3035
1	1224	3036
1	1203	3037
1	1188	3038
1	1153	3039
1	1106	3040
1	1070	3041
1	1046	3042
1	1031	3043
1	1040	3044
1	1026	3045
1	1004	3046
1	952	3047
1	887	3048
1	822	3049
1	764	3050
1	715	3051
1	665	3052
1	651	3053
1	683	3054
1	756	3055
1	845	3056
1	918	3057
1	1001	3058
1	1071	3059
1	639	3080
1	767	3081
1	891	3082
1	996	3083
1	1068	3084
1	1116	3085
1	1136	3086
1	1123	3087
1	1095	3088
1	1044	3089
1	990	3090
1	941	3091
1	905	3092
1	890	3093
1	900	3094
1	927	3095
1	986	3096
1	1054	3097
1	1116	3098
1	1166	3099
1	1190	3100
1	1194	3101
1	1188	3102
1	1199	3103
1	1225	3104
1	1263	3105
1	1294	3106
1	1318	3107
1	1346	3108
1	1373	3109
1	1393	3110
1	1402	3111
1	1403	3112
1	1394	3113
1	1377	3114
1	1369	3115
1	1350	3116
1	1344	3117
1	1356	3118
1	1362	3119
1	1162	3060
1	1256	3061
1	1333	3062
1	1409	3063
1	1463	3064
1	1474	3065
1	1431	3066
1	1335	3067
1	1205	3068
1	1049	3069
1	878	3070
1	717	3071
1	565	3072
1	429	3073
1	328	3074
1	274	3075
1	272	3076
1	314	3077
1	400	3078
1	513	3079
1	1373	3140
1	1441	3141
1	1503	3142
1	1541	3143
1	1563	3144
1	1571	3145
1	1565	3146
1	1544	3147
1	1521	3148
1	1503	3149
1	1493	3150
1	1499	3151
1	1501	3152
1	1502	3153
1	1500	3154
1	1495	3155
1	1499	3156
1	1497	3157
1	1495	3158
1	1495	3159
1	1367	3120
1	1374	3121
1	1372	3122
1	1363	3123
1	1343	3124
1	1305	3125
1	1266	3126
1	1215	3127
1	1168	3128
1	1122	3129
1	1083	3130
1	1055	3131
1	1035	3132
1	1026	3133
1	1032	3134
1	1056	3135
1	1097	3136
1	1165	3137
1	1241	3138
1	1312	3139
1	1508	3160
1	1529	3161
1	1526	3162
1	1530	3163
1	1523	3164
1	1506	3165
1	1476	3166
1	1436	3167
1	1393	3168
1	1338	3169
1	1280	3170
1	1217	3171
1	1173	3172
1	1143	3173
1	1116	3174
1	1085	3175
1	1058	3176
1	1034	3177
1	1026	3178
1	1022	3179
1	1017	3180
1	1007	3181
1	993	3182
1	980	3183
1	972	3184
1	970	3185
1	965	3186
1	961	3187
1	953	3188
1	950	3189
1	953	3190
1	962	3191
1	964	3192
1	978	3193
1	979	3194
1	976	3195
1	975	3196
1	963	3197
1	947	3198
1	918	3199
1	900	3200
1	891	3201
1	873	3202
1	854	3203
1	843	3204
1	831	3205
1	825	3206
1	822	3207
1	829	3208
1	827	3209
1	824	3210
1	820	3211
1	810	3212
1	806	3213
1	810	3214
1	822	3215
1	845	3216
1	869	3217
1	896	3218
1	919	3219
1	929	3220
1	927	3221
1	914	3222
1	900	3223
1	873	3224
1	837	3225
1	806	3226
1	775	3227
1	749	3228
1	721	3229
1	691	3230
1	662	3231
1	649	3232
1	662	3233
1	686	3234
1	713	3235
1	748	3236
1	801	3237
1	877	3238
1	953	3239
1	1031	3240
1	1088	3241
1	1136	3242
1	1163	3243
1	1171	3244
1	1161	3245
1	1131	3246
1	1087	3247
1	1031	3248
1	955	3249
1	880	3250
1	818	3251
1	769	3252
1	753	3253
1	754	3254
1	786	3255
1	835	3256
1	878	3257
1	914	3258
1	931	3259
1	932	3260
1	934	3261
1	944	3262
1	953	3263
1	960	3264
1	979	3265
1	1004	3266
1	1016	3267
1	1037	3268
1	1053	3269
1	1069	3270
1	1094	3271
1	1130	3272
1	1167	3273
1	1205	3274
1	1231	3275
1	1247	3276
1	1245	3277
1	1233	3278
1	1215	3279
1	1189	3280
1	1167	3281
1	1141	3282
1	1139	3283
1	1134	3284
1	1136	3285
1	1137	3286
1	1135	3287
1	1134	3288
1	1134	3289
1	1121	3290
1	1084	3291
1	1044	3292
1	1014	3293
1	1005	3294
1	1017	3295
1	1049	3296
1	1089	3297
1	1147	3298
1	1192	3299
1	1229	3300
1	1266	3301
1	1293	3302
1	1315	3303
1	1310	3304
1	1286	3305
1	1241	3306
1	1168	3307
1	1080	3308
1	999	3309
1	923	3310
1	867	3311
1	838	3312
1	841	3313
1	853	3314
1	873	3315
1	904	3316
1	940	3317
1	973	3318
1	1005	3319
1	1032	3320
1	1062	3321
1	1098	3322
1	1135	3323
1	1164	3324
1	1175	3325
1	1166	3326
1	1147	3327
1	1122	3328
1	1088	3329
1	1060	3330
1	1035	3331
1	1031	3332
1	1027	3333
1	1009	3334
1	988	3335
1	974	3336
1	974	3337
1	990	3338
1	1017	3339
1	1328	3360
1	1377	3361
1	1420	3362
1	1435	3363
1	1435	3364
1	1417	3365
1	1381	3366
1	1332	3367
1	1270	3368
1	1223	3369
1	1184	3370
1	1155	3371
1	1136	3372
1	1140	3373
1	1151	3374
1	1159	3375
1	1157	3376
1	1155	3377
1	1159	3378
1	1171	3379
1	1052	3340
1	1086	3341
1	1123	3342
1	1157	3343
1	1184	3344
1	1207	3345
1	1218	3346
1	1217	3347
1	1206	3348
1	1188	3349
1	1171	3350
1	1157	3351
1	1147	3352
1	1139	3353
1	1140	3354
1	1144	3355
1	1158	3356
1	1188	3357
1	1235	3358
1	1281	3359
1	1222	3400
1	1219	3401
1	1223	3402
1	1219	3403
1	1206	3404
1	1174	3405
1	1125	3406
1	1071	3407
1	1011	3408
1	952	3409
1	900	3410
1	849	3411
1	814	3412
1	788	3413
1	787	3414
1	803	3415
1	828	3416
1	861	3417
1	901	3418
1	940	3419
1	1197	3380
1	1233	3381
1	1266	3382
1	1280	3383
1	1279	3384
1	1270	3385
1	1267	3386
1	1262	3387
1	1267	3388
1	1278	3389
1	1288	3390
1	1283	3391
1	1258	3392
1	1227	3393
1	1202	3394
1	1188	3395
1	1184	3396
1	1190	3397
1	1205	3398
1	1216	3399
1	980	3420
1	1009	3421
1	1031	3422
1	1044	3423
1	1054	3424
1	1058	3425
1	1060	3426
1	1061	3427
1	1058	3428
1	1049	3429
1	1035	3430
1	1029	3431
1	1015	3432
1	1003	3433
1	1003	3434
1	1009	3435
1	1031	3436
1	1070	3437
1	1119	3438
1	1179	3439
1	1238	3440
1	1283	3441
1	1315	3442
1	1335	3443
1	1350	3444
1	1359	3445
1	1347	3446
1	1327	3447
1	1297	3448
1	1262	3449
1	1228	3450
1	1213	3451
1	1188	3452
1	1163	3453
1	1141	3454
1	1129	3455
1	1134	3456
1	1160	3457
1	1188	3458
1	1214	3459
1	1241	3460
1	1264	3461
1	1291	3462
1	1319	3463
1	1332	3464
1	1332	3465
1	1310	3466
1	1262	3467
1	1207	3468
1	1155	3469
1	1112	3470
1	1080	3471
1	1059	3472
1	1056	3473
1	1058	3474
1	1080	3475
1	1116	3476
1	1166	3477
1	1220	3478
1	1274	3479
1	1323	3480
1	1367	3481
1	1402	3482
1	1437	3483
1	1461	3484
1	1477	3485
1	1487	3486
1	1488	3487
1	1478	3488
1	1467	3489
1	1451	3490
1	1446	3491
1	1458	3492
1	1477	3493
1	1494	3494
1	1520	3495
1	1550	3496
1	1584	3497
1	1618	3498
1	1644	3499
1	1652	3500
1	1647	3501
1	1631	3502
1	1594	3503
1	1559	3504
1	1529	3505
1	1508	3506
1	1505	3507
1	1512	3508
1	1508	3509
1	1503	3510
1	1492	3511
1	1487	3512
1	1494	3513
1	1516	3514
1	1548	3515
1	1581	3516
1	1611	3517
1	1643	3518
1	1669	3519
1	1686	3520
1	1675	3521
1	1650	3522
1	1632	3523
1	1600	3524
1	1561	3525
1	1513	3526
1	1454	3527
1	1394	3528
1	1320	3529
1	1267	3530
1	1214	3531
1	1170	3532
1	1145	3533
1	1148	3534
1	1163	3535
1	1188	3536
1	1227	3537
1	1276	3538
1	1328	3539
1	1393	3540
1	1452	3541
1	1525	3542
1	1580	3543
1	1633	3544
1	1679	3545
1	1726	3546
1	1772	3547
1	1818	3548
1	1865	3549
1	1908	3550
1	1949	3551
1	1992	3552
1	2038	3553
1	2076	3554
1	2106	3555
1	2124	3556
1	2129	3557
1	2119	3558
1	2104	3559
1	2088	3560
1	2060	3561
1	2009	3562
1	1932	3563
1	1843	3564
1	1737	3565
1	1625	3566
1	1514	3567
1	1417	3568
1	1327	3569
1	1254	3570
1	1193	3571
1	1150	3572
1	1129	3573
1	1123	3574
1	1128	3575
1	1146	3576
1	1179	3577
1	1215	3578
1	1261	3579
1	1422	3600
1	1451	3601
1	1487	3602
1	1514	3603
1	1538	3604
1	1551	3605
1	1553	3606
1	1543	3607
1	1520	3608
1	1494	3609
1	1469	3610
1	1452	3611
1	1446	3612
1	1449	3613
1	1452	3614
1	1463	3615
1	1479	3616
1	1501	3617
1	1515	3618
1	1529	3619
1	1305	3580
1	1343	3581
1	1372	3582
1	1400	3583
1	1419	3584
1	1420	3585
1	1408	3586
1	1384	3587
1	1358	3588
1	1343	3589
1	1334	3590
1	1330	3591
1	1327	3592
1	1324	3593
1	1328	3594
1	1332	3595
1	1332	3596
1	1345	3597
1	1360	3598
1	1382	3599
1	1542	3620
1	1549	3621
1	1553	3622
1	1548	3623
1	1548	3624
1	1546	3625
1	1550	3626
1	1559	3627
1	1576	3628
1	1581	3629
1	1567	3630
1	1543	3631
1	1529	3632
1	1526	3633
1	1536	3634
1	1544	3635
1	1556	3636
1	1579	3637
1	1598	3638
1	1628	3639
1	1658	3640
1	1688	3641
1	1717	3642
1	1738	3643
1	1751	3644
1	1764	3645
1	1775	3646
1	1796	3647
1	1811	3648
1	1802	3649
1	1789	3650
1	1769	3651
1	1753	3652
1	1738	3653
1	1738	3654
1	1753	3655
1	1769	3656
1	1770	3657
1	1773	3658
1	1767	3659
1	1764	3660
1	1749	3661
1	1729	3662
1	1710	3663
1	1685	3664
1	1656	3665
1	1623	3666
1	1584	3667
1	1539	3668
1	1500	3669
1	1461	3670
1	1426	3671
1	1401	3672
1	1398	3673
1	1405	3674
1	1422	3675
1	1440	3676
1	1466	3677
1	1490	3678
1	1521	3679
1	1547	3680
1	1571	3681
1	1598	3682
1	1618	3683
1	1634	3684
1	1641	3685
1	1634	3686
1	1615	3687
1	1598	3688
1	1567	3689
1	1538	3690
1	1507	3691
1	1485	3692
1	1476	3693
1	1477	3694
1	1486	3695
1	1501	3696
1	1524	3697
1	1551	3698
1	1596	3699
1	1638	3700
1	1672	3701
1	1700	3702
1	1728	3703
1	1746	3704
1	1760	3705
1	1762	3706
1	1752	3707
1	1739	3708
1	1735	3709
1	1737	3710
1	1751	3711
1	1778	3712
1	1823	3713
1	1886	3714
1	1949	3715
1	2009	3716
1	2066	3717
1	2114	3718
1	2131	3719
1	2142	3720
1	2140	3721
1	2127	3722
1	2107	3723
1	2076	3724
1	2039	3725
1	2001	3726
1	1966	3727
1	1927	3728
1	1892	3729
1	1856	3730
1	1818	3731
1	1781	3732
1	1756	3733
1	1751	3734
1	1751	3735
1	1762	3736
1	1782	3737
1	1817	3738
1	1856	3739
1	1901	3740
1	1940	3741
1	1969	3742
1	1976	3743
1	1978	3744
1	1970	3745
1	1948	3746
1	1925	3747
1	1900	3748
1	1881	3749
1	1867	3750
1	1858	3751
1	1849	3752
1	1853	3753
1	1865	3754
1	1889	3755
1	1920	3756
1	1961	3757
1	2011	3758
1	2066	3759
1	2123	3760
1	2171	3761
1	2210	3762
1	2239	3763
1	2236	3764
1	2212	3765
1	2180	3766
1	2132	3767
1	2075	3768
1	2014	3769
1	1961	3770
1	1908	3771
1	1858	3772
1	1817	3773
1	1791	3774
1	1791	3775
1	1814	3776
1	1849	3777
1	1895	3778
1	1944	3779
1	2026	3800
1	2024	3801
1	2006	3802
1	1970	3803
1	1922	3804
1	1869	3805
1	1814	3806
1	1751	3807
1	1700	3808
1	1645	3809
1	1593	3810
1	1546	3811
1	1503	3812
1	1479	3813
1	1476	3814
1	1486	3815
1	1507	3816
1	1539	3817
1	1566	3818
1	1593	3819
1	1988	3780
1	2016	3781
1	2022	3782
1	2004	3783
1	1976	3784
1	1949	3785
1	1931	3786
1	1919	3787
1	1907	3788
1	1908	3789
1	1917	3790
1	1919	3791
1	1922	3792
1	1929	3793
1	1937	3794
1	1952	3795
1	1974	3796
1	1999	3797
1	2016	3798
1	2025	3799
1	1626	3820
1	1656	3821
1	1682	3822
1	1711	3823
1	1726	3824
1	1729	3825
1	1713	3826
1	1686	3827
1	1660	3828
1	1634	3829
1	1607	3830
1	1583	3831
1	1576	3832
1	1581	3833
1	1596	3834
1	1617	3835
1	1645	3836
1	1677	3837
1	1701	3838
1	1719	3839
1	1738	3840
1	1749	3841
1	1746	3842
1	1727	3843
1	1709	3844
1	1683	3845
1	1656	3846
1	1629	3847
1	1605	3848
1	1582	3849
1	1561	3850
1	1548	3851
1	1534	3852
1	1525	3853
1	1521	3854
1	1521	3855
1	1526	3856
1	1529	3857
1	1538	3858
1	1538	3859
1	1530	3860
1	1529	3861
1	1533	3862
1	1537	3863
1	1546	3864
1	1551	3865
1	1544	3866
1	1538	3867
1	1534	3868
1	1527	3869
1	1506	3870
1	1486	3871
1	1469	3872
1	1463	3873
1	1467	3874
1	1477	3875
1	1490	3876
1	1497	3877
1	1494	3878
1	1503	3879
1	1370	3900
1	1372	3901
1	1373	3902
1	1368	3903
1	1351	3904
1	1335	3905
1	1319	3906
1	1311	3907
1	1302	3908
1	1304	3909
1	1310	3910
1	1320	3911
1	1332	3912
1	1348	3913
1	1355	3914
1	1364	3915
1	1377	3916
1	1397	3917
1	1417	3918
1	1445	3919
1	1515	3880
1	1531	3881
1	1542	3882
1	1547	3883
1	1537	3884
1	1529	3885
1	1520	3886
1	1508	3887
1	1488	3888
1	1465	3889
1	1440	3890
1	1419	3891
1	1400	3892
1	1392	3893
1	1384	3894
1	1381	3895
1	1374	3896
1	1372	3897
1	1371	3898
1	1369	3899
1	1482	3920
1	1518	3921
1	1545	3922
1	1555	3923
1	1563	3924
1	1566	3925
1	1562	3926
1	1566	3927
1	1577	3928
1	1581	3929
1	1581	3930
1	1579	3931
1	1586	3932
1	1594	3933
1	1619	3934
1	1659	3935
1	1690	3936
1	1723	3937
1	1751	3938
1	1765	3939
1	1769	3940
1	1759	3941
1	1731	3942
1	1689	3943
1	1643	3944
1	1606	3945
1	1581	3946
1	1572	3947
1	1559	3948
1	1557	3949
1	1560	3950
1	1574	3951
1	1593	3952
1	1617	3953
1	1644	3954
1	1672	3955
1	1698	3956
1	1718	3957
1	1746	3958
1	1770	3959
1	1791	3960
1	1803	3961
1	1809	3962
1	1800	3963
1	1788	3964
1	1767	3965
1	1742	3966
1	1710	3967
1	1669	3968
1	1636	3969
1	1612	3970
1	1598	3971
1	1596	3972
1	1600	3973
1	1602	3974
1	1607	3975
1	1612	3976
1	1617	3977
1	1621	3978
1	1634	3979
1	1641	3980
1	1652	3981
1	1659	3982
1	1652	3983
1	1637	3984
1	1607	3985
1	1564	3986
1	1517	3987
1	1477	3988
1	1431	3989
1	1384	3990
1	1358	3991
1	1350	3992
1	1366	3993
1	1410	3994
1	1461	3995
1	1511	3996
1	1559	3997
1	1610	3998
1	1660	3999
1	1711	4000
1	1748	4001
1	1769	4002
1	1789	4003
1	1790	4004
1	1779	4005
1	1752	4006
1	1720	4006
1	1683	4008
1	1658	4009
1	1646	4010
1	1639	4011
1	1639	4012
1	1647	4013
1	1660	4014
1	1686	4014
1	1721	4016
1	1762	4017
1	1817	4018
1	1857	4019
1	1895	4020
1	1917	4021
1	1922	4022
1	1917	4022
1	1888	4024
1	1843	4025
1	1791	4026
1	1744	4027
1	1708	4028
1	1679	4029
1	1661	4030
1	1659	4030
1	1659	4032
1	1664	4033
1	1686	4034
1	1708	4035
1	1734	4036
1	1764	4037
1	1798	4038
1	1829	4038
1	1849	4040
1	1859	4041
1	1862	4042
1	1854	4043
1	1845	4044
1	1838	4045
1	1826	4046
1	1816	4046
1	1803	4048
1	1796	4049
1	1791	4050
1	1795	4051
1	1795	4052
1	1796	4053
1	1792	4054
1	1791	4054
1	1783	4056
1	1778	4057
1	1770	4058
1	1773	4059
1	1788	4060
1	1795	4061
1	1803	4062
1	1819	4062
1	1825	4064
1	1825	4065
1	1818	4066
1	1796	4067
1	1773	4068
1	1753	4069
1	1742	4070
1	1741	4070
1	1744	4072
1	1746	4073
1	1764	4074
1	1785	4075
1	1812	4076
1	1842	4077
1	1869	4078
1	1885	4078
1	1891	4080
1	1886	4081
1	1872	4082
1	1853	4083
1	1829	4084
1	1800	4085
1	1773	4086
1	1744	4086
1	1712	4088
1	1683	4089
1	1661	4090
1	1660	4091
1	1677	4092
1	1721	4093
1	1780	4094
1	1849	4094
1	1917	4096
1	1978	4097
1	2037	4098
1	2084	4099
1	2112	4100
1	2119	4101
1	2114	4102
1	2092	4103
1	2065	4104
1	2027	4105
1	1993	4106
1	1954	4107
1	1922	4108
1	1888	4109
1	1864	4110
1	1860	4111
1	1869	4112
1	1881	4113
1	1901	4114
1	1927	4115
1	1966	4116
1	2004	4117
1	2032	4118
1	2062	4119
1	2079	4120
1	2088	4121
1	2084	4122
1	2076	4123
1	2049	4124
1	2006	4125
1	1952	4126
1	1895	4127
1	1831	4128
1	1754	4129
1	1700	4130
1	1649	4131
1	1623	4132
1	1611	4133
1	1611	4134
1	1625	4135
1	1647	4136
1	1683	4137
1	1727	4138
1	1777	4139
1	1824	4140
1	1859	4141
1	1895	4142
1	1910	4143
1	1914	4144
1	1903	4145
1	1871	4146
1	1831	4147
1	1764	4148
1	1711	4149
1	1661	4150
1	1629	4151
1	1607	4152
1	1603	4153
1	1607	4154
1	1621	4155
1	1642	4156
1	1662	4157
1	1687	4158
1	1711	4159
1	1895	4180
1	1933	4181
1	1952	4182
1	1961	4183
1	1956	4184
1	1949	4185
1	1935	4186
1	1909	4187
1	1869	4188
1	1827	4189
1	1785	4190
1	1757	4191
1	1738	4192
1	1724	4193
1	1719	4194
1	1729	4195
1	1760	4196
1	1817	4197
1	1899	4198
1	1995	4199
1	1728	4160
1	1737	4161
1	1741	4162
1	1736	4163
1	1725	4164
1	1700	4165
1	1668	4166
1	1629	4167
1	1589	4168
1	1555	4169
1	1530	4170
1	1519	4171
1	1517	4172
1	1528	4173
1	1551	4174
1	1591	4175
1	1644	4176
1	1712	4177
1	1776	4178
1	1842	4179
1	2089	4200
1	2178	4201
1	2250	4202
1	2300	4203
1	2341	4204
1	2371	4205
1	2394	4206
1	2414	4207
1	2412	4208
1	2410	4209
1	2415	4210
1	2431	4211
1	2449	4212
1	2485	4213
1	2509	4214
1	2531	4215
1	2532	4216
1	2513	4217
1	2471	4218
1	2402	4219
1	2320	4220
1	2236	4221
1	2149	4222
1	2057	4223
1	1974	4224
1	1901	4225
1	1838	4226
1	1780	4227
1	1747	4228
1	1712	4229
1	1681	4230
1	1649	4231
1	1635	4232
1	1616	4233
1	1607	4234
1	1600	4235
1	1605	4236
1	1616	4237
1	1638	4238
1	1674	4239
1	1714	4240
1	1757	4241
1	1794	4242
1	1825	4243
1	1834	4244
1	1817	4245
1	1789	4246
1	1767	4247
1	1738	4248
1	1698	4249
1	1656	4250
1	1608	4251
1	1563	4252
1	1508	4253
1	1475	4254
1	1442	4255
1	1416	4256
1	1405	4257
1	1416	4258
1	1432	4259
1	1463	4260
1	1499	4261
1	1539	4262
1	1574	4263
1	1598	4264
1	1620	4265
1	1644	4266
1	1665	4267
1	1680	4268
1	1686	4269
1	1687	4270
1	1682	4271
1	1669	4272
1	1657	4273
1	1643	4274
1	1634	4275
1	1631	4276
1	1629	4277
1	1625	4278
1	1625	4279
1	1625	4280
1	1628	4281
1	1629	4282
1	1620	4283
1	1602	4284
1	1578	4285
1	1543	4286
1	1512	4287
1	1479	4288
1	1435	4289
1	1383	4290
1	1346	4291
1	1322	4292
1	1318	4293
1	1331	4294
1	1369	4295
1	1427	4296
1	1492	4297
1	1553	4298
1	1605	4299
1	1649	4300
1	1686	4301
1	1707	4302
1	1712	4303
1	1691	4304
1	1658	4305
1	1612	4306
1	1565	4307
1	1524	4308
1	1490	4309
1	1463	4310
1	1437	4311
1	1416	4312
1	1405	4313
1	1409	4314
1	1418	4315
1	1431	4316
1	1445	4317
1	1462	4318
1	1476	4319
1	1494	4320
1	1511	4321
1	1521	4322
1	1521	4323
1	1513	4324
1	1499	4325
1	1476	4326
1	1449	4327
1	1413	4328
1	1384	4329
1	1372	4330
1	1377	4331
1	1392	4332
1	1409	4333
1	1436	4334
1	1462	4335
1	1497	4336
1	1531	4337
1	1569	4338
1	1607	4339
1	1641	4340
1	1667	4341
1	1682	4342
1	1672	4343
1	1657	4344
1	1642	4345
1	1634	4346
1	1621	4347
1	1607	4348
1	1584	4349
1	1558	4350
1	1555	4351
1	1558	4352
1	1575	4353
1	1593	4354
1	1616	4355
1	1652	4356
1	1697	4357
1	1738	4358
1	1782	4359
1	1821	4360
1	1841	4361
1	1843	4362
1	1832	4363
1	1799	4364
1	1765	4365
1	1737	4366
1	1711	4367
1	1689	4368
1	1679	4369
1	1682	4370
1	1698	4371
1	1728	4372
1	1764	4373
1	1818	4374
1	1872	4375
1	1931	4376
1	1989	4377
1	2052	4378
1	2100	4379
1	2131	4380
1	2156	4381
1	2165	4382
1	2170	4383
1	2164	4384
1	2137	4385
1	2095	4386
1	2052	4387
1	2008	4388
1	1976	4389
1	1961	4390
1	1953	4391
1	1955	4392
1	1963	4393
1	1966	4394
1	1970	4395
1	1978	4396
1	2000	4397
1	2030	4398
1	2073	4399
1	2105	4400
1	2124	4401
1	2139	4402
1	2143	4403
1	2143	4404
1	2130	4405
1	2102	4406
1	2061	4407
1	2021	4408
1	1973	4409
1	1926	4410
1	1891	4411
1	1869	4412
1	1862	4413
1	1864	4414
1	1869	4415
1	1880	4416
1	1895	4417
1	1912	4418
1	1935	4419
1	1969	4420
1	1998	4421
1	2017	4422
1	2015	4423
1	1975	4424
1	1910	4425
1	1840	4426
1	1764	4427
1	1709	4428
1	1662	4429
1	1633	4430
1	1615	4431
1	1605	4432
1	1595	4433
1	1594	4434
1	1597	4435
1	1595	4436
1	1598	4437
1	1610	4438
1	1634	4439
1	1664	4440
1	1698	4441
1	1734	4442
1	1754	4443
1	1774	4444
1	1793	4445
1	1815	4446
1	1823	4447
1	1817	4448
1	1800	4449
1	1785	4450
1	1764	4451
1	1746	4452
1	1736	4453
1	1728	4454
1	1720	4455
1	1715	4456
1	1719	4457
1	1733	4458
1	1744	4459
1	1756	4460
1	1762	4461
1	1760	4462
1	1742	4463
1	1730	4464
1	1719	4465
1	1706	4466
1	1692	4467
1	1699	4468
1	1712	4469
1	1735	4470
1	1770	4471
1	1816	4472
1	1845	4473
1	1870	4474
1	1899	4475
1	1917	4476
1	1917	4477
1	1894	4478
1	1865	4479
1	1840	4480
1	1817	4481
1	1799	4482
1	1793	4483
1	1782	4484
1	1777	4485
1	1775	4486
1	1771	4487
1	1760	4488
1	1755	4489
1	1751	4490
1	1739	4491
1	1737	4492
1	1744	4493
1	1752	4494
1	1760	4495
1	1764	4496
1	1776	4497
1	1791	4498
1	1799	4499
1	1799	4500
1	1790	4501
1	1768	4502
1	1738	4503
1	1701	4504
1	1660	4505
1	1616	4506
1	1570	4507
1	1529	4508
1	1498	4509
1	1475	4510
1	1451	4511
1	1436	4512
1	1424	4513
1	1418	4514
1	1416	4515
1	1413	4516
1	1409	4517
1	1404	4518
1	1405	4519
1	1405	4520
1	1405	4521
1	1410	4522
1	1400	4523
1	1383	4524
1	1360	4525
1	1333	4526
1	1307	4527
1	1284	4528
1	1266	4529
1	1261	4530
1	1267	4531
1	1278	4532
1	1289	4533
1	1312	4534
1	1341	4535
1	1373	4536
1	1409	4537
1	1437	4538
1	1467	4539
1	1428	4560
1	1452	4561
1	1477	4562
1	1502	4563
1	1528	4564
1	1549	4565
1	1556	4566
1	1547	4567
1	1524	4568
1	1502	4569
1	1480	4570
1	1463	4571
1	1456	4572
1	1464	4573
1	1481	4574
1	1512	4575
1	1549	4576
1	1591	4577
1	1630	4578
1	1660	4579
1	1500	4560
1	1526	4561
1	1535	4562
1	1534	4563
1	1521	4564
1	1499	4565
1	1467	4566
1	1446	4567
1	1424	4568
1	1410	4569
1	1403	4570
1	1402	4571
1	1398	4572
1	1380	4573
1	1372	4574
1	1373	4575
1	1374	4576
1	1381	4577
1	1393	4578
1	1407	4579
1	1686	4580
1	1708	4581
1	1720	4582
1	1728	4583
1	1733	4584
1	1727	4585
1	1712	4586
1	1698	4587
1	1686	4588
1	1670	4589
1	1655	4590
1	1643	4591
1	1636	4592
1	1634	4593
1	1638	4594
1	1660	4595
1	1686	4596
1	1705	4597
1	1712	4598
1	1725	4599
1	1743	4600
1	1764	4601
1	1781	4602
1	1791	4603
1	1788	4604
1	1767	4605
1	1737	4606
1	1698	4607
1	1662	4608
1	1636	4609
1	1616	4610
1	1607	4611
1	1607	4612
1	1607	4613
1	1628	4614
1	1662	4615
1	1712	4616
1	1773	4617
1	1844	4618
1	1899	4619
1	1948	4620
1	1979	4621
1	1991	4622
1	1980	4623
1	1954	4624
1	1917	4625
1	1866	4626
1	1806	4627
1	1737	4628
1	1678	4629
1	1629	4630
1	1584	4631
1	1550	4632
1	1541	4633
1	1544	4634
1	1559	4635
1	1598	4636
1	1634	4637
1	1672	4638
1	1710	4639
1	1669	4660
1	1704	4661
1	1730	4662
1	1753	4663
1	1762	4664
1	1760	4665
1	1749	4666
1	1738	4667
1	1720	4668
1	1699	4669
1	1677	4670
1	1662	4671
1	1660	4672
1	1668	4673
1	1692	4674
1	1739	4675
1	1791	4676
1	1847	4677
1	1901	4678
1	1939	4679
1	1742	4640
1	1769	4641
1	1789	4642
1	1793	4643
1	1802	4644
1	1807	4645
1	1796	4646
1	1772	4647
1	1731	4648
1	1678	4649
1	1625	4650
1	1581	4651
1	1548	4652
1	1527	4653
1	1516	4654
1	1517	4655
1	1530	4656
1	1555	4657
1	1587	4658
1	1626	4659
1	1965	4680
1	1974	4681
1	1969	4682
1	1944	4683
1	1899	4684
1	1845	4685
1	1783	4686
1	1727	4687
1	1670	4688
1	1634	4689
1	1607	4690
1	1585	4691
1	1571	4692
1	1560	4693
1	1555	4694
1	1555	4695
1	1562	4696
1	1578	4697
1	1590	4698
1	1603	4699
1	1612	4700
1	1620	4701
1	1625	4702
1	1616	4703
1	1607	4704
1	1601	4705
1	1599	4706
1	1603	4707
1	1612	4708
1	1623	4709
1	1633	4710
1	1638	4711
1	1646	4712
1	1659	4713
1	1674	4714
1	1692	4715
1	1712	4716
1	1729	4717
1	1738	4718
1	1742	4719
1	1737	4720
1	1712	4721
1	1680	4722
1	1647	4723
1	1611	4724
1	1581	4725
1	1549	4726
1	1525	4727
1	1507	4728
1	1501	4729
1	1494	4730
1	1503	4731
1	1517	4732
1	1542	4733
1	1579	4734
1	1625	4735
1	1667	4736
1	1706	4737
1	1734	4738
1	1769	4739
1	1814	4740
1	1847	4741
1	1884	4742
1	1908	4743
1	1922	4744
1	1927	4745
1	1917	4746
1	1896	4747
1	1863	4748
1	1832	4749
1	1791	4750
1	1755	4751
1	1719	4752
1	1695	4753
1	1679	4754
1	1682	4755
1	1695	4756
1	1713	4757
1	1739	4758
1	1768	4759
1	1802	4760
1	1831	4761
1	1848	4762
1	1856	4763
1	1862	4764
1	1854	4765
1	1826	4766
1	1782	4767
1	1738	4768
1	1686	4769
1	1627	4770
1	1568	4771
1	1515	4772
1	1475	4773
1	1449	4774
1	1439	4775
1	1450	4776
1	1476	4777
1	1511	4778
1	1554	4779
1	1583	4780
1	1599	4781
1	1607	4782
1	1604	4783
1	1584	4784
1	1555	4785
1	1529	4786
1	1508	4787
1	1489	4788
1	1488	4789
1	1503	4790
1	1533	4791
1	1572	4792
1	1613	4793
1	1662	4794
1	1723	4795
1	1789	4796
1	1859	4797
1	1927	4798
1	1985	4799
1	2030	4800
1	2071	4801
1	2102	4802
1	2116	4803
1	2117	4804
1	2099	4805
1	2062	4806
1	2017	4807
1	1969	4808
1	1927	4809
1	1895	4810
1	1868	4811
1	1843	4812
1	1828	4813
1	1819	4814
1	1818	4815
1	1823	4816
1	1834	4817
1	1850	4818
1	1865	4819
1	1880	4820
1	1895	4821
1	1896	4822
1	1878	4823
1	1848	4824
1	1791	4825
1	1730	4826
1	1674	4827
1	1634	4828
1	1607	4829
1	1589	4830
1	1593	4831
1	1595	4832
1	1598	4833
1	1612	4834
1	1641	4835
1	1674	4836
1	1701	4837
1	1728	4838
1	1748	4839
1	1769	4840
1	1791	4841
1	1809	4842
1	1817	4843
1	1826	4844
1	1832	4845
1	1849	4846
1	1881	4847
1	1922	4848
1	1974	4849
1	2030	4850
1	2089	4851
1	2153	4852
1	2214	4853
1	2283	4854
1	2358	4855
1	2435	4856
1	2503	4857
1	2561	4858
1	2623	4859
1	2685	4860
1	2743	4861
1	2782	4862
1	2801	4863
1	2802	4864
1	2791	4865
1	2770	4866
1	2735	4867
1	2681	4868
1	2628	4869
1	2573	4870
1	2522	4871
1	2471	4872
1	2407	4873
1	2340	4874
1	2277	4875
1	2215	4876
1	2171	4877
1	2135	4878
1	2105	4879
1	2073	4880
1	2042	4881
1	2012	4882
1	1970	4883
1	1936	4884
1	1900	4885
1	1868	4886
1	1834	4887
1	1801	4888
1	1773	4889
1	1752	4890
1	1736	4891
1	1724	4892
1	1729	4893
1	1749	4894
1	1780	4895
1	1817	4896
1	1853	4897
1	1881	4898
1	1907	4899
1	1917	4900
1	1914	4901
1	1895	4902
1	1872	4903
1	1832	4904
1	1776	4905
1	1721	4906
1	1672	4907
1	1618	4908
1	1559	4909
1	1500	4910
1	1443	4911
1	1397	4912
1	1355	4913
1	1347	4914
1	1366	4915
1	1398	4916
1	1437	4917
1	1475	4918
1	1502	4919
1	1517	4920
1	1527	4921
1	1532	4922
1	1538	4923
1	1540	4924
1	1538	4925
1	1539	4926
1	1539	4927
1	1521	4928
1	1492	4929
1	1454	4930
1	1424	4931
1	1397	4932
1	1372	4933
1	1366	4934
1	1357	4935
1	1345	4936
1	1344	4937
1	1359	4938
1	1375	4939
1	1397	4940
1	1402	4941
1	1398	4942
1	1377	4943
1	1359	4944
1	1338	4945
1	1315	4946
1	1296	4947
1	1283	4948
1	1278	4949
1	1268	4950
1	1269	4951
1	1278	4952
1	1301	4953
1	1332	4954
1	1364	4955
1	1394	4956
1	1426	4957
1	1459	4958
1	1490	4959
1	1519	4960
1	1533	4961
1	1542	4962
1	1540	4963
1	1527	4964
1	1499	4965
1	1463	4966
1	1431	4967
1	1398	4968
1	1366	4969
1	1337	4970
1	1314	4971
1	1298	4972
1	1292	4973
1	1293	4974
1	1302	4975
1	1319	4976
1	1354	4977
1	1398	4978
1	1438	4979
1	1440	5000
1	1451	5001
1	1463	5002
1	1459	5003
1	1455	5004
1	1448	5005
1	1433	5006
1	1424	5007
1	1408	5008
1	1393	5009
1	1376	5010
1	1372	5011
1	1376	5012
1	1395	5013
1	1411	5014
1	1436	5015
1	1465	5016
1	1492	5017
1	1507	5018
1	1517	5019
1	1479	4980
1	1514	4981
1	1541	4982
1	1557	4983
1	1556	4984
1	1539	4985
1	1510	4986
1	1476	4987
1	1432	4988
1	1394	4989
1	1347	4990
1	1319	4991
1	1312	4992
1	1314	4993
1	1318	4994
1	1321	4995
1	1338	4996
1	1363	4997
1	1396	4998
1	1422	4999
1	1520	5020
1	1512	5021
1	1500	5022
1	1490	5023
1	1476	5024
1	1462	5025
1	1451	5026
1	1446	5027
1	1447	5028
1	1450	5029
1	1450	5030
1	1466	5031
1	1495	5032
1	1531	5033
1	1581	5034
1	1637	5035
1	1697	5036
1	1760	5037
1	1814	5038
1	1859	5039
1	1886	5040
1	1903	5041
1	1919	5042
1	1920	5043
1	1913	5044
1	1908	5045
1	1901	5046
1	1899	5047
1	1888	5048
1	1872	5049
1	1854	5050
1	1829	5051
1	1793	5052
1	1772	5053
1	1755	5054
1	1743	5055
1	1739	5056
1	1738	5057
1	1751	5058
1	1764	5059
1	1779	5060
1	1792	5061
1	1803	5062
1	1803	5063
1	1795	5064
1	1779	5065
1	1757	5066
1	1730	5067
1	1701	5068
1	1675	5069
1	1662	5070
1	1672	5071
1	1697	5072
1	1734	5073
1	1766	5074
1	1812	5075
1	1854	5076
1	1888	5077
1	1904	5078
1	1908	5079
1	1900	5080
1	1879	5081
1	1856	5082
1	1832	5083
1	1801	5084
1	1769	5085
1	1736	5086
1	1692	5087
1	1658	5088
1	1621	5089
1	1593	5090
1	1568	5091
1	1553	5092
1	1534	5093
1	1529	5094
1	1540	5095
1	1561	5096
1	1590	5097
1	1619	5098
1	1638	5099
1	1651	5100
1	1660	5101
1	1662	5102
1	1659	5103
1	1641	5104
1	1621	5105
1	1594	5106
1	1553	5107
1	1503	5108
1	1463	5109
1	1417	5110
1	1368	5111
1	1331	5112
1	1304	5113
1	1283	5114
1	1274	5115
1	1278	5116
1	1292	5117
1	1314	5118
1	1334	5119
1	1358	5120
1	1379	5121
1	1400	5122
1	1412	5123
1	1417	5124
1	1418	5125
1	1413	5126
1	1399	5127
1	1372	5128
1	1342	5129
1	1310	5130
1	1284	5131
1	1267	5132
1	1242	5133
1	1233	5134
1	1231	5135
1	1235	5136
1	1238	5137
1	1240	5138
1	1241	5139
1	1247	5140
1	1256	5141
1	1266	5142
1	1266	5143
1	1255	5144
1	1233	5145
1	1207	5146
1	1186	5147
1	1162	5148
1	1157	5149
1	1161	5150
1	1168	5151
1	1181	5152
1	1197	5153
1	1218	5154
1	1251	5155
1	1285	5156
1	1330	5157
1	1372	5158
1	1404	5159
1	1422	5160
1	1423	5161
1	1412	5162
1	1395	5163
1	1364	5164
1	1325	5165
1	1292	5166
1	1266	5167
1	1242	5168
1	1241	5169
1	1241	5170
1	1244	5171
1	1251	5172
1	1259	5173
1	1273	5174
1	1294	5175
1	1317	5176
1	1341	5177
1	1369	5178
1	1404	5179
1	1436	5180
1	1458	5181
1	1475	5182
1	1465	5183
1	1450	5184
1	1421	5185
1	1384	5186
1	1349	5187
1	1332	5188
1	1319	5189
1	1320	5190
1	1337	5191
1	1355	5192
1	1377	5193
1	1413	5194
1	1442	5195
1	1476	5196
1	1515	5197
1	1561	5198
1	1607	5199
1	1659	5200
1	1695	5201
1	1721	5202
1	1729	5203
1	1710	5204
1	1660	5205
1	1602	5206
1	1537	5207
1	1475	5208
1	1412	5209
1	1346	5210
1	1304	5211
1	1271	5212
1	1253	5213
1	1261	5214
1	1279	5215
1	1293	5216
1	1314	5217
1	1343	5218
1	1372	5219
1	1407	5220
1	1429	5221
1	1441	5222
1	1446	5223
1	1439	5224
1	1431	5225
1	1430	5226
1	1432	5227
1	1445	5228
1	1476	5229
1	1526	5230
1	1581	5231
1	1641	5232
1	1705	5233
1	1782	5234
1	1843	5235
1	1883	5236
1	1921	5237
1	1932	5238
1	1922	5239
1	1895	5240
1	1860	5241
1	1819	5242
1	1773	5243
1	1744	5244
1	1744	5245
1	1744	5246
1	1737	5247
1	1712	5248
1	1679	5249
1	1645	5250
1	1619	5251
1	1590	5252
1	1561	5253
1	1535	5254
1	1513	5255
1	1494	5256
1	1481	5257
1	1472	5258
1	1476	5259
1	1422	5280
1	1450	5281
1	1463	5282
1	1467	5283
1	1464	5284
1	1462	5285
1	1461	5286
1	1463	5287
1	1453	5288
1	1450	5289
1	1446	5290
1	1439	5291
1	1436	5292
1	1440	5293
1	1451	5294
1	1477	5295
1	1513	5296
1	1549	5297
1	1587	5298
1	1631	5299
1	1485	5260
1	1490	5261
1	1503	5262
1	1515	5263
1	1515	5264
1	1504	5265
1	1503	5266
1	1494	5267
1	1479	5268
1	1455	5269
1	1426	5270
1	1395	5271
1	1359	5272
1	1332	5273
1	1319	5274
1	1310	5275
1	1315	5276
1	1332	5277
1	1350	5278
1	1379	5279
1	1663	5300
1	1682	5301
1	1687	5302
1	1679	5303
1	1660	5304
1	1632	5305
1	1594	5306
1	1562	5307
1	1539	5308
1	1530	5309
1	1539	5310
1	1548	5311
1	1547	5312
1	1551	5313
1	1549	5314
1	1554	5315
1	1556	5316
1	1555	5317
1	1543	5318
1	1544	5319
1	1553	5320
1	1569	5321
1	1598	5322
1	1634	5323
1	1665	5324
1	1686	5325
1	1695	5326
1	1692	5327
1	1692	5328
1	1703	5329
1	1714	5330
1	1747	5331
1	1790	5332
1	1828	5333
1	1844	5334
1	1843	5335
1	1819	5336
1	1791	5337
1	1764	5338
1	1734	5339
1	1708	5340
1	1680	5341
1	1660	5342
1	1636	5343
1	1602	5344
1	1556	5345
1	1505	5346
1	1458	5347
1	1418	5348
1	1394	5349
1	1368	5350
1	1347	5351
1	1343	5352
1	1354	5353
1	1377	5354
1	1422	5355
1	1471	5356
1	1531	5357
1	1592	5358
1	1634	5359
1	1674	5380
1	1670	5381
1	1654	5382
1	1628	5383
1	1602	5384
1	1574	5385
1	1543	5386
1	1517	5387
1	1500	5388
1	1481	5389
1	1473	5390
1	1478	5391
1	1501	5392
1	1530	5393
1	1566	5394
1	1599	5395
1	1638	5396
1	1670	5397
1	1677	5398
1	1665	5399
1	1657	5360
1	1660	5361
1	1656	5362
1	1634	5363
1	1615	5364
1	1582	5365
1	1538	5366
1	1490	5367
1	1437	5368
1	1391	5369
1	1355	5370
1	1342	5371
1	1345	5372
1	1360	5373
1	1398	5374
1	1449	5375
1	1513	5376
1	1575	5377
1	1616	5378
1	1652	5379
1	1644	5400
1	1618	5401
1	1602	5402
1	1589	5403
1	1581	5404
1	1574	5405
1	1566	5406
1	1557	5407
1	1541	5408
1	1525	5409
1	1506	5410
1	1501	5411
1	1503	5412
1	1512	5413
1	1521	5414
1	1539	5415
1	1559	5416
1	1587	5417
1	1618	5418
1	1646	5419
1	1664	5420
1	1686	5421
1	1697	5422
1	1690	5423
1	1683	5424
1	1660	5425
1	1634	5426
1	1609	5427
1	1578	5428
1	1535	5429
1	1494	5430
1	1466	5431
1	1446	5432
1	1419	5433
1	1403	5434
1	1394	5435
1	1381	5436
1	1383	5437
1	1398	5438
1	1424	5439
1	1523	5460
1	1525	5461
1	1528	5462
1	1528	5463
1	1529	5464
1	1530	5465
1	1530	5466
1	1526	5467
1	1502	5468
1	1480	5469
1	1451	5470
1	1420	5471
1	1384	5472
1	1366	5473
1	1364	5474
1	1372	5475
1	1377	5476
1	1390	5477
1	1400	5478
1	1412	5479
1	1451	5440
1	1481	5441
1	1513	5442
1	1527	5443
1	1533	5444
1	1536	5445
1	1540	5446
1	1547	5447
1	1539	5448
1	1524	5449
1	1505	5450
1	1490	5451
1	1472	5452
1	1452	5453
1	1447	5454
1	1449	5455
1	1463	5456
1	1485	5457
1	1507	5458
1	1517	5459
1	1427	5480
1	1443	5481
1	1453	5482
1	1449	5483
1	1450	5484
1	1458	5485
1	1461	5486
1	1450	5487
1	1430	5488
1	1398	5489
1	1359	5490
1	1323	5491
1	1293	5492
1	1278	5493
1	1280	5494
1	1307	5495
1	1345	5496
1	1400	5497
1	1472	5498
1	1534	5499
1	1620	5500
1	1718	5501
1	1829	5502
1	1921	5503
1	1999	5504
1	2058	5505
1	2106	5506
1	2143	5507
1	2169	5508
1	2182	5509
1	2187	5510
1	2201	5511
1	2222	5512
1	2252	5513
1	2273	5514
1	2278	5515
1	2272	5516
1	2239	5517
1	2183	5518
1	2106	5519
1	2017	5520
1	1927	5521
1	1847	5522
1	1765	5523
1	1692	5524
1	1615	5525
1	1542	5526
1	1485	5527
1	1450	5528
1	1437	5529
1	1436	5530
1	1449	5531
1	1477	5532
1	1519	5533
1	1574	5534
1	1621	5535
1	1672	5536
1	1737	5537
1	1781	5538
1	1814	5539
1	1823	5540
1	1818	5541
1	1793	5542
1	1762	5543
1	1736	5544
1	1702	5545
1	1661	5546
1	1620	5547
1	1557	5548
1	1489	5549
1	1432	5550
1	1394	5551
1	1359	5552
1	1343	5553
1	1345	5554
1	1351	5555
1	1363	5556
1	1369	5557
1	1377	5558
1	1404	5559
1	1508	5580
1	1561	5581
1	1605	5582
1	1633	5583
1	1646	5584
1	1647	5585
1	1636	5586
1	1608	5587
1	1562	5588
1	1528	5589
1	1490	5590
1	1466	5591
1	1461	5592
1	1461	5593
1	1459	5594
1	1466	5595
1	1479	5596
1	1501	5597
1	1516	5598
1	1526	5599
1	1435	5560
1	1471	5561
1	1501	5562
1	1519	5563
1	1517	5564
1	1494	5565
1	1458	5566
1	1418	5567
1	1372	5568
1	1335	5569
1	1305	5570
1	1284	5571
1	1273	5572
1	1273	5573
1	1280	5574
1	1292	5575
1	1312	5576
1	1343	5577
1	1397	5578
1	1451	5579
1	1532	5600
1	1539	5601
1	1542	5602
1	1529	5603
1	1517	5604
1	1498	5605
1	1473	5606
1	1450	5607
1	1446	5608
1	1454	5609
1	1476	5610
1	1502	5611
1	1528	5612
1	1548	5613
1	1567	5614
1	1584	5615
1	1607	5616
1	1634	5617
1	1652	5618
1	1665	5619
1	1599	5640
1	1607	5641
1	1623	5642
1	1634	5643
1	1636	5644
1	1631	5645
1	1615	5646
1	1594	5647
1	1565	5648
1	1553	5649
1	1539	5650
1	1517	5651
1	1490	5652
1	1473	5653
1	1459	5654
1	1461	5655
1	1466	5656
1	1482	5657
1	1512	5658
1	1539	5659
1	1665	5620
1	1646	5621
1	1608	5622
1	1573	5623
1	1536	5624
1	1510	5625
1	1487	5626
1	1464	5627
1	1448	5628
1	1436	5629
1	1425	5630
1	1423	5631
1	1427	5632
1	1441	5633
1	1465	5634
1	1495	5635
1	1528	5636
1	1553	5637
1	1573	5638
1	1584	5639
1	1600	5680
1	1620	5681
1	1628	5682
1	1634	5683
1	1625	5684
1	1607	5685
1	1582	5686
1	1557	5687
1	1551	5688
1	1538	5689
1	1528	5690
1	1517	5691
1	1517	5692
1	1514	5693
1	1524	5694
1	1548	5695
1	1584	5696
1	1632	5697
1	1681	5698
1	1720	5699
1	1563	5660
1	1589	5661
1	1607	5662
1	1608	5663
1	1598	5664
1	1580	5665
1	1554	5666
1	1527	5667
1	1501	5668
1	1465	5669
1	1437	5670
1	1424	5671
1	1424	5672
1	1437	5673
1	1460	5674
1	1488	5675
1	1512	5676
1	1531	5677
1	1549	5678
1	1572	5679
1	1753	5700
1	1780	5701
1	1796	5702
1	1809	5703
1	1795	5704
1	1769	5705
1	1731	5706
1	1682	5707
1	1620	5708
1	1581	5709
1	1555	5710
1	1548	5711
1	1554	5712
1	1574	5713
1	1607	5714
1	1646	5715
1	1688	5716
1	1729	5717
1	1769	5718
1	1811	5719
1	1830	5720
1	1837	5721
1	1843	5722
1	1828	5723
1	1799	5724
1	1762	5725
1	1721	5726
1	1683	5727
1	1660	5728
1	1634	5729
1	1619	5730
1	1599	5731
1	1593	5732
1	1592	5733
1	1605	5734
1	1632	5735
1	1668	5736
1	1713	5737
1	1756	5738
1	1796	5739
1	1839	5740
1	1868	5741
1	1888	5742
1	1898	5743
1	1897	5744
1	1893	5745
1	1875	5746
1	1855	5747
1	1823	5748
1	1791	5749
1	1773	5750
1	1762	5751
1	1761	5752
1	1765	5753
1	1778	5754
1	1791	5755
1	1796	5756
1	1800	5757
1	1815	5758
1	1818	5759
1	1768	5780
1	1777	5781
1	1781	5782
1	1767	5783
1	1751	5784
1	1716	5785
1	1685	5786
1	1646	5787
1	1611	5788
1	1575	5789
1	1543	5790
1	1519	5791
1	1507	5792
1	1507	5793
1	1520	5794
1	1542	5795
1	1580	5796
1	1628	5797
1	1688	5798
1	1737	5799
1	1827	5760
1	1836	5761
1	1834	5762
1	1830	5763
1	1827	5764
1	1819	5765
1	1816	5766
1	1800	5767
1	1776	5768
1	1762	5769
1	1750	5770
1	1736	5771
1	1713	5772
1	1706	5773
1	1701	5774
1	1711	5775
1	1724	5776
1	1738	5777
1	1749	5778
1	1760	5779
1	1792	5800
1	1844	5801
1	1875	5802
1	1891	5803
1	1873	5804
1	1843	5805
1	1800	5806
1	1753	5807
1	1711	5808
1	1669	5809
1	1629	5810
1	1589	5811
1	1556	5812
1	1528	5813
1	1520	5814
1	1521	5815
1	1527	5816
1	1533	5817
1	1550	5818
1	1561	5819
1	1580	5820
1	1598	5821
1	1618	5822
1	1636	5823
1	1654	5824
1	1665	5825
1	1670	5826
1	1656	5827
1	1621	5828
1	1594	5829
1	1562	5830
1	1529	5831
1	1499	5832
1	1476	5833
1	1473	5834
1	1478	5835
1	1514	5836
1	1555	5837
1	1605	5838
1	1651	5839
1	1686	5840
1	1712	5841
1	1720	5842
1	1712	5843
1	1700	5844
1	1674	5845
1	1643	5846
1	1600	5847
1	1557	5848
1	1515	5849
1	1490	5850
1	1476	5851
1	1463	5852
1	1464	5853
1	1479	5854
1	1511	5855
1	1556	5856
1	1616	5857
1	1679	5858
1	1726	5859
1	1769	5860
1	1803	5861
1	1822	5862
1	1832	5863
1	1818	5864
1	1801	5865
1	1788	5866
1	1770	5867
1	1762	5868
1	1750	5869
1	1738	5870
1	1729	5871
1	1718	5872
1	1705	5873
1	1697	5874
1	1687	5875
1	1686	5876
1	1687	5877
1	1705	5878
1	1728	5879
1	1751	5880
1	1767	5881
1	1778	5882
1	1780	5883
1	1778	5884
1	1767	5885
1	1743	5886
1	1707	5887
1	1659	5888
1	1613	5889
1	1581	5890
1	1562	5891
1	1556	5892
1	1573	5893
1	1592	5894
1	1611	5895
1	1634	5896
1	1654	5897
1	1662	5898
1	1672	5899
1	1682	5900
1	1682	5901
1	1686	5902
1	1682	5903
1	1679	5904
1	1665	5905
1	1644	5906
1	1609	5907
1	1579	5908
1	1543	5909
1	1512	5910
1	1491	5911
1	1477	5912
1	1471	5913
1	1472	5914
1	1481	5915
1	1500	5916
1	1524	5917
1	1548	5918
1	1570	5919
1	1585	5920
1	1594	5921
1	1596	5922
1	1596	5923
1	1586	5924
1	1564	5925
1	1534	5926
1	1502	5927
1	1474	5928
1	1449	5929
1	1424	5930
1	1418	5931
1	1417	5932
1	1423	5933
1	1436	5934
1	1463	5935
1	1491	5936
1	1526	5937
1	1557	5938
1	1580	5939
1	1607	5940
1	1625	5941
1	1639	5942
1	1638	5943
1	1634	5944
1	1620	5945
1	1605	5946
1	1582	5947
1	1549	5948
1	1524	5949
1	1490	5950
1	1467	5951
1	1451	5952
1	1449	5953
1	1449	5954
1	1454	5955
1	1476	5956
1	1504	5957
1	1539	5958
1	1579	5959
1	1620	5960
1	1660	5961
1	1690	5962
1	1704	5963
1	1701	5964
1	1687	5965
1	1665	5966
1	1634	5967
1	1607	5968
1	1573	5969
1	1536	5970
1	1493	5971
1	1449	5972
1	1408	5973
1	1372	5974
1	1351	5975
1	1347	5976
1	1360	5977
1	1392	5978
1	1424	5979
1	1466	5980
1	1514	5981
1	1569	5982
1	1625	5983
1	1669	5984
1	1700	5985
1	1713	5986
1	1715	5987
1	1704	5988
1	1684	5989
1	1650	5990
1	1616	5991
1	1589	5992
1	1566	5993
1	1548	5994
1	1538	5995
1	1530	5996
1	1531	5997
1	1546	5998
1	1555	5999
1	1575	6000
1	1593	6001
1	1610	6002
1	1625	6003
1	1634	6004
1	1636	6005
1	1629	6006
1	1607	6007
1	1576	6008
1	1555	6009
1	1539	6010
1	1529	6011
1	1526	6012
1	1530	6013
1	1534	6014
1	1543	6015
1	1555	6016
1	1569	6017
1	1579	6018
1	1581	6019
1	1577	6020
1	1577	6021
1	1579	6022
1	1579	6023
1	1575	6024
1	1564	6025
1	1554	6026
1	1542	6027
1	1537	6028
1	1530	6029
1	1529	6030
1	1533	6031
1	1547	6032
1	1553	6033
1	1558	6034
1	1573	6035
1	1581	6036
1	1597	6037
1	1611	6038
1	1620	6039
1	1621	6040
1	1616	6041
1	1610	6042
1	1609	6043
1	1607	6044
1	1609	6045
1	1613	6046
1	1622	6047
1	1629	6048
1	1632	6049
1	1631	6050
1	1631	6051
1	1638	6052
1	1656	6053
1	1667	6054
1	1679	6055
1	1679	6056
1	1682	6057
1	1685	6058
1	1675	6059
1	1665	6060
1	1659	6061
1	1656	6062
1	1647	6063
1	1633	6064
1	1607	6065
1	1580	6066
1	1553	6067
1	1508	6068
1	1481	6069
1	1454	6070
1	1440	6071
1	1440	6072
1	1460	6073
1	1482	6074
1	1508	6075
1	1539	6076
1	1571	6077
1	1598	6078
1	1617	6079
1	1631	6080
1	1638	6081
1	1638	6082
1	1634	6083
1	1626	6084
1	1616	6085
1	1602	6086
1	1579	6087
1	1553	6088
1	1528	6089
1	1507	6090
1	1503	6091
1	1508	6092
1	1526	6093
1	1544	6094
1	1566	6095
1	1585	6096
1	1600	6097
1	1603	6098
1	1608	6099
1	1611	6100
1	1616	6101
1	1613	6102
1	1610	6103
1	1598	6104
1	1581	6105
1	1567	6106
1	1555	6107
1	1550	6108
1	1537	6109
1	1529	6110
1	1520	6111
1	1517	6112
1	1513	6113
1	1518	6114
1	1529	6115
1	1545	6116
1	1568	6117
1	1595	6118
1	1615	6119
1	1631	6140
1	1633	6141
1	1626	6142
1	1610	6143
1	1593	6144
1	1570	6145
1	1552	6146
1	1530	6147
1	1511	6148
1	1508	6149
1	1524	6150
1	1551	6151
1	1592	6152
1	1647	6153
1	1729	6154
1	1814	6155
1	1895	6156
1	1987	6157
1	2078	6158
1	2165	6159
1	1652	6180
1	1664	6181
1	1672	6182
1	1677	6183
1	1671	6184
1	1651	6185
1	1607	6186
1	1548	6187
1	1479	6188
1	1422	6189
1	1370	6190
1	1337	6191
1	1323	6192
1	1337	6193
1	1360	6194
1	1399	6195
1	1440	6196
1	1490	6197
1	1536	6198
1	1581	6199
1	2242	6140
1	2297	6141
1	2341	6142
1	2372	6143
1	2392	6144
1	2395	6145
1	2382	6146
1	2353	6147
1	2314	6148
1	2262	6149
1	2189	6150
1	2126	6151
1	2053	6152
1	1985	6153
1	1911	6154
1	1841	6155
1	1766	6156
1	1712	6157
1	1654	6158
1	1623	6159
1	1595	6160
1	1569	6161
1	1546	6162
1	1533	6163
1	1513	6164
1	1495	6165
1	1482	6166
1	1476	6167
1	1472	6168
1	1467	6169
1	1455	6170
1	1450	6171
1	1453	6172
1	1466	6173
1	1487	6174
1	1520	6175
1	1554	6176
1	1584	6177
1	1616	6178
1	1636	6179
1	1615	6200
1	1635	6201
1	1646	6202
1	1634	6203
1	1615	6204
1	1580	6205
1	1538	6206
1	1497	6207
1	1461	6208
1	1426	6209
1	1396	6210
1	1369	6211
1	1359	6212
1	1368	6213
1	1394	6214
1	1417	6215
1	1437	6216
1	1453	6217
1	1466	6218
1	1472	6219
1	1536	6240
1	1575	6241
1	1613	6242
1	1642	6243
1	1655	6244
1	1652	6245
1	1625	6246
1	1576	6247
1	1494	6248
1	1435	6249
1	1361	6250
1	1304	6251
1	1263	6252
1	1239	6253
1	1232	6254
1	1242	6255
1	1281	6256
1	1343	6257
1	1413	6258
1	1476	6259
1	1476	6220
1	1481	6221
1	1481	6222
1	1491	6223
1	1490	6224
1	1489	6225
1	1481	6226
1	1472	6227
1	1459	6228
1	1449	6229
1	1429	6230
1	1413	6231
1	1394	6232
1	1376	6233
1	1372	6234
1	1376	6235
1	1397	6236
1	1422	6237
1	1451	6238
1	1491	6239
1	1822	6280
1	1832	6281
1	1828	6282
1	1808	6283
1	1764	6284
1	1714	6285
1	1652	6286
1	1593	6287
1	1531	6288
1	1482	6289
1	1449	6290
1	1428	6291
1	1424	6292
1	1430	6293
1	1450	6294
1	1482	6295
1	1524	6296
1	1568	6297
1	1621	6298
1	1661	6299
1	1529	6260
1	1571	6261
1	1606	6262
1	1621	6263
1	1628	6264
1	1628	6265
1	1618	6266
1	1598	6267
1	1582	6268
1	1561	6269
1	1544	6270
1	1529	6271
1	1520	6272
1	1526	6273
1	1548	6274
1	1585	6275
1	1634	6276
1	1691	6277
1	1749	6278
1	1791	6279
1	1688	6300
1	1696	6301
1	1693	6302
1	1686	6303
1	1674	6304
1	1654	6305
1	1634	6306
1	1623	6307
1	1618	6308
1	1619	6309
1	1625	6310
1	1632	6311
1	1638	6312
1	1660	6313
1	1685	6314
1	1713	6315
1	1751	6316
1	1790	6317
1	1827	6318
1	1856	6319
1	1881	6320
1	1904	6321
1	1922	6322
1	1935	6323
1	1931	6324
1	1909	6325
1	1869	6326
1	1813	6327
1	1751	6328
1	1685	6329
1	1619	6330
1	1567	6331
1	1523	6332
1	1487	6333
1	1472	6334
1	1479	6335
1	1506	6336
1	1543	6337
1	1580	6338
1	1613	6339
1	1645	6340
1	1665	6341
1	1688	6342
1	1711	6343
1	1735	6344
1	1751	6345
1	1764	6346
1	1773	6347
1	1773	6348
1	1762	6349
1	1745	6350
1	1734	6351
1	1733	6352
1	1742	6353
1	1759	6354
1	1790	6355
1	1819	6356
1	1842	6357
1	1868	6358
1	1881	6359
1	1896	6360
1	1914	6361
1	1933	6362
1	1948	6363
1	1962	6364
1	1963	6365
1	1958	6366
1	1940	6367
1	1898	6368
1	1869	6369
1	1839	6370
1	1811	6371
1	1788	6372
1	1782	6373
1	1782	6374
1	1791	6375
1	1822	6376
1	1852	6377
1	1881	6378
1	1908	6379
1	1935	6380
1	1956	6381
1	1973	6382
1	1964	6383
1	1948	6384
1	1922	6385
1	1886	6386
1	1855	6387
1	1828	6388
1	1801	6389
1	1790	6390
1	1786	6391
1	1786	6392
1	1791	6393
1	1803	6394
1	1829	6395
1	1856	6396
1	1881	6397
1	1904	6398
1	1922	6399
1	1940	6400
1	1947	6401
1	1948	6402
1	1948	6403
1	1927	6404
1	1903	6405
1	1866	6406
1	1817	6407
1	1755	6408
1	1700	6409
1	1656	6410
1	1620	6411
1	1593	6412
1	1571	6413
1	1571	6414
1	1582	6415
1	1597	6416
1	1619	6417
1	1647	6418
1	1672	6419
1	1688	6420
1	1701	6421
1	1711	6422
1	1712	6423
1	1701	6424
1	1686	6425
1	1665	6426
1	1639	6427
1	1605	6428
1	1581	6429
1	1555	6430
1	1536	6431
1	1531	6432
1	1530	6433
1	1551	6434
1	1573	6435
1	1586	6436
1	1607	6437
1	1611	6438
1	1612	6439
1	1616	6440
1	1616	6441
1	1619	6442
1	1616	6443
1	1615	6444
1	1613	6445
1	1607	6446
1	1593	6447
1	1582	6448
1	1575	6449
1	1562	6450
1	1555	6451
1	1546	6452
1	1540	6453
1	1539	6454
1	1537	6455
1	1535	6456
1	1542	6457
1	1555	6458
1	1571	6459
1	1591	6460
1	1608	6461
1	1628	6462
1	1643	6463
1	1638	6464
1	1618	6465
1	1591	6466
1	1562	6467
1	1537	6468
1	1517	6469
1	1503	6470
1	1489	6471
1	1476	6472
1	1459	6473
1	1454	6474
1	1452	6475
1	1450	6476
1	1455	6477
1	1476	6478
1	1493	6479
1	1524	6480
1	1551	6481
1	1566	6482
1	1571	6483
1	1556	6484
1	1533	6485
1	1497	6486
1	1459	6487
1	1413	6488
1	1377	6489
1	1346	6490
1	1322	6491
1	1311	6492
1	1319	6493
1	1333	6494
1	1368	6495
1	1413	6496
1	1463	6497
1	1517	6498
1	1562	6499
1	1608	6500
1	1645	6501
1	1668	6502
1	1674	6503
1	1665	6504
1	1643	6505
1	1607	6506
1	1569	6507
1	1537	6508
1	1503	6509
1	1477	6510
1	1459	6511
1	1451	6512
1	1454	6513
1	1469	6514
1	1490	6515
1	1515	6516
1	1542	6517
1	1567	6518
1	1593	6519
1	1587	6540
1	1613	6541
1	1641	6542
1	1648	6543
1	1656	6544
1	1656	6545
1	1654	6546
1	1647	6547
1	1625	6548
1	1607	6549
1	1581	6550
1	1559	6551
1	1553	6552
1	1561	6553
1	1578	6554
1	1597	6555
1	1622	6556
1	1644	6557
1	1657	6558
1	1668	6559
1	1626	6520
1	1656	6521
1	1677	6522
1	1697	6523
1	1698	6524
1	1682	6525
1	1650	6526
1	1609	6527
1	1573	6528
1	1526	6529
1	1479	6530
1	1439	6531
1	1413	6532
1	1399	6533
1	1407	6534
1	1427	6535
1	1458	6536
1	1490	6537
1	1530	6538
1	1561	6539
1	1670	6560
1	1671	6561
1	1665	6562
1	1648	6563
1	1634	6564
1	1608	6565
1	1580	6566
1	1546	6567
1	1528	6568
1	1510	6569
1	1502	6570
1	1495	6571
1	1494	6572
1	1503	6573
1	1526	6574
1	1555	6575
1	1595	6576
1	1634	6577
1	1657	6578
1	1665	6579
1	1552	6600
1	1581	6601
1	1603	6602
1	1619	6603
1	1621	6604
1	1607	6605
1	1589	6606
1	1564	6607
1	1523	6608
1	1488	6609
1	1448	6610
1	1413	6611
1	1394	6612
1	1382	6613
1	1382	6614
1	1399	6615
1	1424	6616
1	1469	6617
1	1519	6618
1	1570	6619
1	1670	6580
1	1667	6581
1	1656	6582
1	1642	6583
1	1612	6584
1	1579	6585
1	1537	6586
1	1497	6587
1	1466	6588
1	1437	6589
1	1422	6590
1	1418	6591
1	1424	6592
1	1433	6593
1	1441	6594
1	1448	6595
1	1453	6596
1	1469	6597
1	1495	6598
1	1521	6599
1	1613	6620
1	1644	6621
1	1657	6622
1	1659	6623
1	1655	6624
1	1641	6625
1	1616	6626
1	1585	6627
1	1559	6628
1	1521	6629
1	1491	6630
1	1462	6631
1	1458	6632
1	1465	6633
1	1481	6634
1	1513	6635
1	1548	6636
1	1589	6637
1	1632	6638
1	1669	6639
1	1696	6640
1	1710	6641
1	1704	6642
1	1686	6643
1	1660	6644
1	1629	6645
1	1587	6646
1	1542	6647
1	1494	6648
1	1450	6649
1	1414	6650
1	1371	6651
1	1334	6652
1	1308	6653
1	1294	6654
1	1301	6655
1	1330	6656
1	1376	6657
1	1428	6658
1	1482	6659
1	1530	6660
1	1571	6661
1	1595	6662
1	1599	6663
1	1585	6664
1	1557	6665
1	1526	6666
1	1494	6667
1	1454	6668
1	1433	6669
1	1403	6670
1	1371	6671
1	1356	6672
1	1355	6673
1	1353	6674
1	1367	6675
1	1383	6676
1	1412	6677
1	1442	6678
1	1477	6679
1	1516	6680
1	1544	6681
1	1577	6682
1	1607	6683
1	1632	6684
1	1650	6685
1	1657	6686
1	1656	6687
1	1655	6688
1	1647	6689
1	1638	6690
1	1625	6691
1	1615	6692
1	1611	6693
1	1611	6694
1	1616	6695
1	1622	6696
1	1629	6697
1	1629	6698
1	1635	6699
1	1647	6700
1	1661	6701
1	1691	6702
1	1726	6703
1	1741	6704
1	1741	6705
1	1726	6706
1	1697	6707
1	1656	6708
1	1604	6709
1	1547	6710
1	1494	6711
1	1448	6712
1	1403	6713
1	1383	6714
1	1393	6715
1	1424	6716
1	1463	6717
1	1513	6718
1	1555	6719
1	1594	6720
1	1632	6721
1	1664	6722
1	1698	6723
1	1719	6724
1	1727	6725
1	1712	6726
1	1687	6727
1	1656	6728
1	1635	6729
1	1626	6730
1	1629	6731
1	1641	6732
1	1645	6733
1	1644	6734
1	1634	6735
1	1620	6736
1	1621	6737
1	1621	6738
1	1626	6739
1	1631	6740
1	1638	6741
1	1654	6742
1	1665	6743
1	1676	6744
1	1694	6745
1	1712	6746
1	1724	6747
1	1721	6748
1	1708	6749
1	1688	6750
1	1664	6751
1	1647	6752
1	1628	6753
1	1616	6754
1	1618	6755
1	1629	6756
1	1646	6757
1	1667	6758
1	1690	6759
1	1722	6760
1	1760	6761
1	1802	6762
1	1848	6763
1	1887	6764
1	1913	6765
1	1940	6766
1	1975	6767
1	2024	6768
1	2081	6769
1	2144	6770
1	2208	6771
1	2271	6772
1	2332	6773
1	2377	6774
1	2444	6775
1	2503	6776
1	2543	6777
1	2587	6778
1	2611	6779
1	2626	6780
1	2623	6781
1	2592	6782
1	2535	6783
1	2464	6784
1	2371	6785
1	2279	6786
1	2183	6787
1	2078	6788
1	2001	6789
1	1924	6790
1	1857	6791
1	1795	6792
1	1762	6793
1	1741	6794
1	1737	6795
1	1742	6796
1	1757	6797
1	1778	6798
1	1809	6799
1	1841	6800
1	1869	6801
1	1898	6802
1	1914	6803
1	1921	6804
1	1921	6805
1	1913	6806
1	1899	6807
1	1886	6808
1	1864	6809
1	1841	6810
1	1809	6811
1	1764	6812
1	1719	6813
1	1681	6814
1	1653	6815
1	1635	6816
1	1625	6817
1	1616	6818
1	1619	6819
1	1629	6820
1	1641	6821
1	1655	6822
1	1661	6823
1	1659	6824
1	1654	6825
1	1642	6826
1	1616	6827
1	1591	6828
1	1566	6829
1	1538	6830
1	1515	6831
1	1487	6832
1	1466	6833
1	1459	6834
1	1471	6835
1	1497	6836
1	1529	6837
1	1559	6838
1	1589	6839
1	1607	6840
1	1628	6841
1	1649	6842
1	1657	6843
1	1647	6844
1	1626	6845
1	1593	6846
1	1554	6847
1	1495	6848
1	1464	6849
1	1437	6850
1	1425	6851
1	1436	6852
1	1461	6853
1	1495	6854
1	1529	6855
1	1563	6856
1	1596	6857
1	1621	6858
1	1636	6859
1	1641	6860
1	1633	6861
1	1616	6862
1	1592	6863
1	1574	6864
1	1553	6865
1	1529	6866
1	1511	6867
1	1502	6868
1	1503	6869
1	1512	6870
1	1529	6871
1	1555	6872
1	1587	6873
1	1619	6874
1	1647	6875
1	1673	6876
1	1698	6877
1	1714	6878
1	1733	6879
1	1747	6880
1	1751	6881
1	1739	6882
1	1729	6883
1	1705	6884
1	1677	6885
1	1649	6886
1	1623	6887
1	1602	6888
1	1584	6889
1	1572	6890
1	1560	6891
1	1549	6892
1	1529	6893
1	1515	6894
1	1511	6895
1	1515	6896
1	1531	6897
1	1572	6898
1	1620	6899
1	1674	6900
1	1721	6901
1	1762	6902
1	1795	6903
1	1822	6904
1	1829	6905
1	1817	6906
1	1788	6907
1	1751	6908
1	1728	6909
1	1704	6910
1	1686	6911
1	1669	6912
1	1669	6913
1	1677	6914
1	1693	6915
1	1713	6916
1	1738	6917
1	1755	6918
1	1767	6919
1	1779	6920
1	1791	6921
1	1798	6922
1	1796	6923
1	1791	6924
1	1769	6925
1	1743	6926
1	1715	6927
1	1695	6928
1	1672	6929
1	1659	6930
1	1639	6931
1	1645	6932
1	1655	6933
1	1674	6934
1	1706	6935
1	1739	6936
1	1777	6937
1	1821	6938
1	1862	6939
1	1926	6960
1	1944	6961
1	1953	6962
1	1960	6963
1	1962	6964
1	1966	6965
1	1971	6966
1	1971	6967
1	1953	6968
1	1935	6969
1	1911	6970
1	1882	6971
1	1855	6972
1	1836	6973
1	1827	6974
1	1817	6975
1	1814	6976
1	1818	6977
1	1832	6978
1	1848	6979
1	1872	6980
1	1901	6981
1	1922	6982
1	1926	6983
1	1924	6984
1	1908	6985
1	1881	6986
1	1850	6987
1	1828	6988
1	1796	6989
1	1770	6990
1	1751	6991
1	1741	6992
1	1742	6993
1	1760	6994
1	1793	6995
1	1843	6996
1	1886	6997
1	1932	6998
1	1963	6999
1	1888	6940
1	1906	6941
1	1909	6942
1	1903	6943
1	1891	6944
1	1868	6945
1	1843	6946
1	1830	6947
1	1818	6948
1	1815	6949
1	1817	6950
1	1817	6951
1	1823	6952
1	1823	6953
1	1831	6954
1	1842	6955
1	1856	6956
1	1872	6957
1	1892	6958
1	1911	6959
1	1996	7000
1	2016	7001
1	2026	7002
1	2018	7003
1	2007	7004
1	1985	7005
1	1962	7006
1	1937	7007
1	1913	7008
1	1893	7009
1	1870	7010
1	1856	7011
1	1849	7012
1	1849	7013
1	1844	7014
1	1845	7015
1	1845	7016
1	1856	7017
1	1870	7018
1	1895	7019
1	1913	7020
1	1925	7021
1	1934	7022
1	1933	7023
1	1922	7024
1	1905	7025
1	1887	7026
1	1868	7027
1	1849	7028
1	1817	7029
1	1788	7030
1	1756	7031
1	1734	7032
1	1710	7033
1	1703	7034
1	1703	7035
1	1701	7036
1	1723	7037
1	1750	7038
1	1783	7039
1	1821	7040
1	1843	7041
1	1856	7042
1	1861	7043
1	1856	7044
1	1840	7045
1	1813	7046
1	1782	7047
1	1756	7048
1	1740	7049
1	1718	7050
1	1698	7051
1	1688	7052
1	1690	7053
1	1701	7054
1	1717	7055
1	1736	7056
1	1746	7057
1	1751	7058
1	1751	7059
1	1752	7060
1	1755	7061
1	1751	7062
1	1741	7063
1	1738	7064
1	1726	7065
1	1712	7066
1	1698	7067
1	1683	7068
1	1668	7069
1	1660	7070
1	1655	7071
1	1647	7072
1	1639	7073
1	1628	7074
1	1628	7075
1	1637	7076
1	1654	7077
1	1674	7078
1	1701	7079
1	1724	7080
1	1737	7081
1	1740	7082
1	1738	7083
1	1737	7084
1	1738	7085
1	1734	7086
1	1726	7087
1	1716	7088
1	1692	7089
1	1660	7090
1	1618	7091
1	1579	7092
1	1541	7093
1	1520	7094
1	1504	7095
1	1504	7096
1	1524	7097
1	1548	7098
1	1576	7099
1	1603	7100
1	1616	7101
1	1620	7102
1	1609	7103
1	1589	7104
1	1569	7105
1	1546	7106
1	1525	7107
1	1503	7108
1	1497	7109
1	1497	7110
1	1505	7111
1	1529	7112
1	1567	7113
1	1609	7114
1	1649	7115
1	1686	7116
1	1715	7117
1	1741	7118
1	1750	7119
1	1755	7120
1	1752	7121
1	1742	7122
1	1724	7123
1	1703	7124
1	1668	7125
1	1630	7126
1	1590	7127
1	1559	7128
1	1529	7129
1	1503	7130
1	1493	7131
1	1499	7132
1	1516	7133
1	1548	7134
1	1584	7135
1	1623	7136
1	1659	7137
1	1688	7138
1	1728	7139
1	1762	7140
1	1790	7141
1	1801	7142
1	1811	7143
1	1790	7144
1	1760	7145
1	1725	7146
1	1690	7147
1	1660	7148
1	1625	7149
1	1607	7150
1	1598	7151
1	1598	7152
1	1605	7153
1	1615	7154
1	1625	7155
1	1634	7156
1	1649	7157
1	1665	7158
1	1683	7159
1	1695	7160
1	1701	7161
1	1699	7162
1	1699	7163
1	1688	7164
1	1681	7165
1	1670	7166
1	1658	7167
1	1644	7168
1	1638	7169
1	1633	7170
1	1631	7171
1	1634	7172
1	1642	7173
1	1657	7174
1	1675	7175
1	1697	7176
1	1719	7177
1	1744	7178
1	1755	7179
1	1765	7180
1	1782	7181
1	1791	7182
1	1794	7183
1	1793	7184
1	1778	7185
1	1760	7186
1	1746	7187
1	1737	7188
1	1726	7189
1	1716	7190
1	1707	7191
1	1693	7192
1	1675	7193
1	1656	7194
1	1647	7195
1	1649	7196
1	1660	7197
1	1677	7198
1	1697	7199
1	1711	7200
1	1727	7201
1	1746	7202
1	1763	7203
1	1772	7204
1	1770	7205
1	1765	7206
1	1759	7207
1	1750	7208
1	1731	7209
1	1719	7210
1	1703	7211
1	1686	7212
1	1665	7213
1	1657	7214
1	1639	7215
1	1625	7216
1	1618	7217
1	1624	7218
1	1638	7219
1	1652	7220
1	1661	7221
1	1661	7222
1	1660	7223
1	1642	7224
1	1630	7225
1	1619	7226
1	1616	7227
1	1620	7228
1	1642	7229
1	1660	7230
1	1685	7231
1	1703	7232
1	1731	7233
1	1746	7234
1	1761	7235
1	1769	7236
1	1772	7237
1	1764	7238
1	1751	7239
1	1729	7240
1	1701	7241
1	1670	7242
1	1635	7243
1	1612	7244
1	1599	7245
1	1594	7246
1	1597	7247
1	1595	7248
1	1596	7249
1	1602	7250
1	1606	7251
1	1607	7252
1	1607	7253
1	1607	7254
1	1609	7255
1	1612	7256
1	1621	7257
1	1631	7258
1	1638	7259
1	1641	7260
1	1643	7261
1	1651	7262
1	1667	7263
1	1683	7264
1	1689	7265
1	1690	7266
1	1686	7267
1	1683	7268
1	1673	7269
1	1672	7270
1	1667	7271
1	1651	7272
1	1629	7273
1	1607	7274
1	1571	7275
1	1538	7276
1	1511	7277
1	1497	7278
1	1492	7279
1	1500	7280
1	1513	7281
1	1538	7282
1	1575	7283
1	1611	7284
1	1659	7285
1	1700	7286
1	1737	7287
1	1762	7288
1	1786	7289
1	1791	7290
1	1783	7291
1	1764	7292
1	1733	7293
1	1703	7294
1	1687	7295
1	1686	7296
1	1702	7297
1	1729	7298
1	1751	7299
1	1769	7300
1	1778	7301
1	1765	7302
1	1738	7303
1	1705	7304
1	1659	7305
1	1608	7306
1	1563	7307
1	1526	7308
1	1495	7309
1	1485	7310
1	1493	7311
1	1513	7312
1	1544	7313
1	1574	7314
1	1619	7315
1	1669	7316
1	1715	7317
1	1762	7318
1	1814	7319
1	1842	7320
1	1856	7321
1	1855	7322
1	1842	7323
1	1814	7324
1	1777	7325
1	1738	7326
1	1705	7327
1	1679	7328
1	1647	7329
1	1623	7330
1	1607	7331
1	1593	7332
1	1585	7333
1	1594	7334
1	1599	7335
1	1609	7336
1	1634	7337
1	1644	7338
1	1656	7339
1	1668	7340
1	1677	7341
1	1681	7342
1	1682	7343
1	1677	7344
1	1662	7345
1	1647	7346
1	1634	7347
1	1611	7348
1	1594	7349
1	1577	7350
1	1566	7351
1	1555	7352
1	1548	7353
1	1553	7354
1	1562	7355
1	1577	7356
1	1593	7357
1	1625	7358
1	1642	7359
1	1661	7360
1	1682	7361
1	1695	7362
1	1715	7363
1	1728	7364
1	1728	7365
1	1719	7366
1	1713	7367
1	1712	7368
1	1715	7369
1	1724	7370
1	1742	7371
1	1767	7372
1	1798	7373
1	1826	7374
1	1852	7375
1	1863	7376
1	1864	7377
1	1851	7378
1	1830	7379
1	1795	7380
1	1764	7381
1	1737	7382
1	1701	7383
1	1665	7384
1	1634	7385
1	1610	7386
1	1584	7387
1	1566	7388
1	1541	7389
1	1529	7390
1	1526	7391
1	1536	7392
1	1556	7393
1	1590	7394
1	1621	7395
1	1661	7396
1	1700	7397
1	1737	7398
1	1764	7399
1	1786	7400
1	1795	7401
1	1795	7402
1	1788	7403
1	1765	7404
1	1743	7405
1	1719	7406
1	1696	7407
1	1673	7408
1	1661	7409
1	1652	7410
1	1648	7411
1	1646	7412
1	1638	7413
1	1634	7414
1	1631	7415
1	1627	7416
1	1625	7417
1	1623	7418
1	1611	7419
1	1609	7420
1	1605	7421
1	1594	7422
1	1586	7423
1	1585	7424
1	1581	7425
1	1580	7426
1	1581	7427
1	1581	7428
1	1584	7429
1	1581	7430
1	1580	7431
1	1579	7432
1	1584	7433
1	1592	7434
1	1602	7435
1	1613	7436
1	1625	7437
1	1638	7438
1	1649	7439
1	1652	7440
1	1643	7441
1	1641	7442
1	1634	7443
1	1629	7444
1	1625	7445
1	1616	7446
1	1611	7447
1	1611	7448
1	1606	7449
1	1602	7450
1	1602	7451
1	1598	7452
1	1602	7453
1	1609	7454
1	1613	7455
1	1613	7456
1	1611	7457
1	1610	7458
1	1607	7459
1	1594	7460
1	1575	7461
1	1557	7462
1	1553	7463
1	1553	7464
1	1564	7465
1	1577	7466
1	1594	7467
1	1621	7468
1	1656	7469
1	1685	7470
1	1701	7471
1	1712	7472
1	1712	7473
1	1701	7474
1	1686	7475
1	1668	7476
1	1660	7477
1	1662	7478
1	1668	7479
1	2575	7500
1	2603	7501
1	2619	7502
1	2609	7503
1	2589	7504
1	2552	7505
1	2504	7506
1	2433	7507
1	2340	7508
1	2240	7509
1	2145	7510
1	2055	7511
1	1973	7512
1	1899	7513
1	1847	7514
1	1814	7515
1	1796	7516
1	1809	7517
1	1829	7518
1	1854	7519
1	1686	7480
1	1716	7481
1	1760	7482
1	1803	7483
1	1853	7484
1	1889	7485
1	1922	7486
1	1948	7487
1	1965	7488
1	1974	7489
1	1998	7490
1	2029	7491
1	2068	7492
1	2113	7493
1	2165	7494
1	2232	7495
1	2302	7496
1	2381	7497
1	2460	7498
1	2523	7499
1	1880	7520
1	1905	7521
1	1922	7522
1	1930	7523
1	1922	7524
1	1920	7525
1	1908	7526
1	1895	7527
1	1873	7528
1	1862	7529
1	1842	7530
1	1831	7531
1	1834	7532
1	1837	7533
1	1845	7534
1	1861	7535
1	1880	7536
1	1895	7537
1	1900	7538
1	1896	7539
1	1886	7540
1	1869	7541
1	1854	7542
1	1844	7543
1	1842	7544
1	1828	7545
1	1812	7546
1	1800	7547
1	1788	7548
1	1770	7549
1	1753	7550
1	1738	7551
1	1731	7552
1	1721	7553
1	1704	7554
1	1694	7555
1	1686	7556
1	1691	7557
1	1706	7558
1	1733	7559
1	1758	7560
1	1783	7561
1	1803	7562
1	1817	7563
1	1809	7564
1	1787	7565
1	1755	7566
1	1719	7567
1	1686	7568
1	1645	7569
1	1608	7570
1	1587	7571
1	1581	7572
1	1589	7573
1	1611	7574
1	1641	7575
1	1674	7576
1	1708	7577
1	1738	7578
1	1773	7579
1	1814	7580
1	1842	7581
1	1862	7582
1	1878	7583
1	1881	7584
1	1873	7585
1	1849	7586
1	1801	7587
1	1754	7588
1	1713	7589
1	1674	7590
1	1642	7591
1	1619	7592
1	1610	7593
1	1623	7594
1	1652	7595
1	1695	7596
1	1751	7597
1	1814	7598
1	1859	7599
1	1904	7600
1	1935	7601
1	1952	7602
1	1953	7603
1	1944	7604
1	1909	7605
1	1863	7606
1	1808	7607
1	1742	7608
1	1682	7609
1	1631	7610
1	1593	7611
1	1564	7612
1	1553	7613
1	1553	7614
1	1571	7615
1	1593	7616
1	1621	7617
1	1652	7618
1	1683	7619
1	1710	7620
1	1731	7621
1	1750	7622
1	1765	7623
1	1781	7624
1	1790	7625
1	1791	7626
1	1791	7627
1	1791	7628
1	1789	7629
1	1786	7630
1	1782	7631
1	1773	7632
1	1770	7633
1	1780	7634
1	1791	7635
1	1796	7636
1	1817	7637
1	1831	7638
1	1845	7639
1	1854	7640
1	1847	7641
1	1836	7642
1	1817	7643
1	1791	7644
1	1774	7645
1	1759	7646
1	1744	7647
1	1734	7648
1	1729	7649
1	1733	7650
1	1744	7651
1	1754	7652
1	1768	7653
1	1780	7654
1	1794	7655
1	1817	7656
1	1844	7657
1	1881	7658
1	1909	7659
1	2075	7700
1	2070	7701
1	2069	7702
1	2066	7703
1	2052	7704
1	2034	7705
1	2016	7706
1	2000	7707
1	1991	7708
1	1999	7709
1	2006	7710
1	2022	7711
1	2039	7712
1	2053	7713
1	2067	7714
1	2079	7715
1	2096	7716
1	2117	7717
1	2146	7718
1	2169	7719
1	1926	7680
1	1948	7681
1	1970	7682
1	1983	7683
1	1989	7684
1	1995	7685
1	2000	7686
1	2009	7687
1	2025	7688
1	2030	7689
1	2051	7690
1	2070	7691
1	2087	7692
1	2097	7693
1	2106	7694
1	2105	7695
1	2100	7696
1	2096	7697
1	2089	7698
1	2079	7699
1	1944	7660
1	1967	7661
1	1985	7662
1	1991	7663
1	1992	7664
1	1979	7665
1	1969	7666
1	1956	7667
1	1946	7668
1	1936	7669
1	1934	7670
1	1935	7671
1	1936	7672
1	1937	7673
1	1929	7674
1	1926	7675
1	1916	7676
1	1901	7677
1	1896	7678
1	1909	7679
1	2191	7720
1	2202	7721
1	2197	7722
1	2183	7723
1	2161	7724
1	2111	7725
1	2051	7726
1	1985	7727
1	1932	7728
1	1895	7729
1	1873	7730
1	1872	7731
1	1881	7732
1	1895	7733
1	1918	7734
1	1946	7735
1	1969	7736
1	1997	7737
1	2021	7738
1	2045	7739
1	2070	7740
1	2089	7741
1	2106	7742
1	2097	7743
1	2075	7744
1	2043	7745
1	2003	7746
1	1962	7747
1	1922	7748
1	1877	7749
1	1845	7750
1	1826	7751
1	1813	7752
1	1809	7753
1	1820	7754
1	1837	7755
1	1863	7756
1	1885	7757
1	1901	7758
1	1913	7759
1	1922	7760
1	1937	7761
1	1946	7762
1	1940	7763
1	1921	7764
1	1895	7765
1	1860	7766
1	1830	7767
1	1809	7768
1	1798	7769
1	1791	7770
1	1785	7771
1	1778	7772
1	1778	7773
1	1789	7774
1	1809	7775
1	1831	7776
1	1858	7777
1	1886	7778
1	1907	7779
1	1926	7780
1	1944	7781
1	1948	7782
1	1940	7783
1	1923	7784
1	1883	7785
1	1822	7786
1	1738	7787
1	1656	7788
1	1572	7789
1	1503	7790
1	1454	7791
1	1427	7792
1	1423	7793
1	1437	7794
1	1474	7795
1	1530	7796
1	1602	7797
1	1671	7798
1	1742	7799
1	1801	7800
1	1844	7801
1	1867	7802
1	1869	7803
1	1854	7804
1	1826	7805
1	1799	7806
1	1775	7807
1	1757	7808
1	1728	7809
1	1697	7810
1	1670	7811
1	1647	7812
1	1634	7813
1	1635	7814
1	1643	7815
1	1660	7816
1	1686	7817
1	1715	7818
1	1749	7819
1	1780	7820
1	1814	7821
1	1832	7822
1	1839	7823
1	1818	7824
1	1791	7825
1	1764	7826
1	1742	7827
1	1724	7828
1	1710	7829
1	1683	7830
1	1671	7831
1	1662	7832
1	1686	7833
1	1712	7834
1	1749	7835
1	1783	7836
1	1821	7837
1	1856	7838
1	1885	7839
1	1906	7840
1	1914	7841
1	1909	7842
1	1890	7843
1	1858	7844
1	1824	7845
1	1778	7846
1	1737	7847
1	1686	7848
1	1638	7849
1	1598	7850
1	1572	7851
1	1555	7852
1	1555	7853
1	1566	7854
1	1593	7855
1	1625	7856
1	1662	7857
1	1707	7858
1	1751	7859
1	1782	7860
1	1811	7861
1	1830	7862
1	1843	7863
1	1844	7864
1	1830	7865
1	1796	7866
1	1760	7867
1	1724	7868
1	1684	7869
1	1647	7870
1	1620	7871
1	1600	7872
1	1592	7873
1	1600	7874
1	1610	7875
1	1637	7876
1	1671	7877
1	1708	7878
1	1739	7879
1	1765	7880
1	1778	7881
1	1776	7882
1	1764	7883
1	1738	7884
1	1712	7885
1	1679	7886
1	1642	7887
1	1612	7888
1	1594	7889
1	1574	7890
1	1559	7891
1	1555	7892
1	1567	7893
1	1594	7894
1	1638	7895
1	1682	7896
1	1712	7897
1	1737	7898
1	1742	7899
1	1738	7900
1	1719	7901
1	1696	7902
1	1665	7903
1	1634	7904
1	1595	7905
1	1557	7906
1	1521	7907
1	1489	7908
1	1466	7909
1	1452	7910
1	1442	7911
1	1434	7912
1	1426	7913
1	1419	7914
1	1428	7915
1	1454	7916
1	1499	7917
1	1548	7918
1	1594	7919
1	1632	7920
1	1660	7921
1	1682	7922
1	1686	7923
1	1679	7924
1	1661	7925
1	1641	7926
1	1613	7927
1	1590	7928
1	1562	7929
1	1545	7930
1	1539	7931
1	1542	7932
1	1554	7933
1	1580	7934
1	1607	7935
1	1634	7936
1	1665	7937
1	1688	7938
1	1708	7939
1	1720	7940
1	1731	7941
1	1734	7942
1	1728	7943
1	1708	7944
1	1686	7945
1	1667	7946
1	1651	7947
1	1634	7948
1	1631	7949
1	1629	7950
1	1641	7951
1	1655	7952
1	1670	7953
1	1686	7954
1	1693	7955
1	1697	7956
1	1701	7957
1	1708	7958
1	1710	7959
1	1718	7960
1	1731	7961
1	1741	7962
1	1751	7963
1	1769	7964
1	1775	7965
1	1765	7966
1	1742	7967
1	1710	7968
1	1665	7969
1	1616	7970
1	1571	7971
1	1528	7972
1	1481	7973
1	1437	7974
1	1403	7975
1	1376	7976
1	1366	7977
1	1373	7978
1	1407	7979
1	1446	7980
1	1490	7981
1	1533	7982
1	1573	7983
1	1607	7984
1	1635	7985
1	1661	7986
1	1679	7987
1	1686	7988
1	1674	7989
1	1662	7990
1	1654	7991
1	1639	7992
1	1623	7993
1	1611	7994
1	1600	7995
1	1607	7996
1	1625	7997
1	1649	7998
1	1672	7999
1	1698	8000
1	1721	8000
1	1734	8002
1	1737	8003
1	1731	8004
1	1723	8005
1	1699	8006
1	1660	8007
1	1612	8008
1	1568	8009
1	1521	8010
1	1479	8011
1	1450	8012
1	1439	8013
1	1443	8013
1	1458	8015
1	1489	8016
1	1531	8016
1	1581	8018
1	1620	8019
1	1661	8020
1	1697	8021
1	1719	8022
1	1728	8023
1	1726	8024
1	1705	8025
1	1672	8026
1	1626	8027
1	1579	8028
1	1528	8029
1	1477	8029
1	1454	8031
1	1439	8032
1	1433	8032
1	1440	8034
1	1464	8035
1	1503	8036
1	1553	8037
1	1598	8038
1	1646	8039
1	1679	8040
1	1698	8041
1	1705	8042
1	1692	8043
1	1670	8044
1	1646	8045
1	1623	8045
1	1597	8047
1	1577	8048
1	1551	8048
1	1533	8050
1	1526	8051
1	1516	8052
1	1510	8053
1	1514	8054
1	1529	8055
1	1551	8056
1	1580	8057
1	1602	8058
1	1620	8059
1	1633	8060
1	1628	8061
1	1611	8061
1	1593	8063
1	1576	8064
1	1572	8064
1	1569	8066
1	1555	8067
1	1541	8068
1	1526	8069
1	1503	8070
1	1479	8071
1	1466	8072
1	1453	8073
1	1448	8074
1	1437	8074
1	1437	8076
1	1435	8077
1	1430	8077
1	1419	8079
1	1712	8100
1	1716	8101
1	1713	8102
1	1701	8103
1	1682	8104
1	1644	8105
1	1599	8106
1	1554	8106
1	1508	8108
1	1467	8109
1	1448	8109
1	1443	8111
1	1450	8112
1	1474	8113
1	1508	8114
1	1548	8115
1	1590	8116
1	1634	8117
1	1673	8118
1	1704	8119
1	1413	8080
1	1416	8080
1	1422	8082
1	1422	8083
1	1424	8084
1	1424	8085
1	1425	8086
1	1428	8087
1	1425	8088
1	1424	8089
1	1424	8090
1	1433	8090
1	1457	8092
1	1490	8093
1	1524	8093
1	1560	8095
1	1596	8096
1	1634	8096
1	1665	8098
1	1697	8099
1	1725	8120
1	1728	8121
1	1719	8122
1	1698	8122
1	1664	8124
1	1629	8125
1	1581	8125
1	1539	8127
1	1494	8128
1	1454	8129
1	1424	8130
1	1397	8131
1	1394	8132
1	1397	8133
1	1410	8134
1	1442	8135
1	1490	8136
1	1537	8137
1	1585	8138
1	1629	8138
1	1670	8140
1	1710	8141
1	1729	8141
1	1737	8143
1	1726	8144
1	1702	8145
1	1682	8146
1	1671	8147
1	1665	8148
1	1660	8149
1	1657	8150
1	1651	8151
1	1638	8152
1	1625	8153
1	1611	8154
1	1605	8154
1	1595	8156
1	1584	8157
1	1571	8157
1	1566	8159
1	1555	8180
1	1546	8181
1	1529	8182
1	1507	8183
1	1485	8184
1	1472	8185
1	1458	8186
1	1451	8186
1	1443	8188
1	1445	8189
1	1436	8189
1	1436	8191
1	1436	8192
1	1443	8193
1	1453	8194
1	1475	8195
1	1494	8196
1	1511	8197
1	1528	8198
1	1538	8199
1	1553	8160
1	1537	8161
1	1528	8162
1	1525	8163
1	1513	8164
1	1503	8165
1	1497	8166
1	1490	8167
1	1485	8168
1	1474	8169
1	1472	8170
1	1472	8170
1	1467	8172
1	1472	8173
1	1484	8173
1	1496	8175
1	1515	8176
1	1533	8177
1	1546	8178
1	1555	8179
1	1559	8200
1	1581	8201
1	1607	8202
1	1629	8203
1	1647	8204
1	1648	8205
1	1634	8206
1	1618	8207
1	1603	8208
1	1582	8209
1	1557	8210
1	1527	8211
1	1500	8212
1	1481	8213
1	1476	8214
1	1480	8215
1	1493	8216
1	1512	8217
1	1543	8218
1	1587	8219
1	1631	8220
1	1677	8221
1	1718	8222
1	1751	8223
1	1764	8224
1	1759	8225
1	1733	8226
1	1692	8227
1	1641	8228
1	1581	8229
1	1525	8230
1	1479	8231
1	1449	8232
1	1427	8233
1	1428	8234
1	1433	8235
1	1437	8236
1	1459	8237
1	1481	8238
1	1511	8239
1	1542	8240
1	1569	8241
1	1587	8242
1	1592	8243
1	1574	8244
1	1552	8245
1	1526	8246
1	1499	8247
1	1474	8248
1	1448	8249
1	1424	8250
1	1422	8251
1	1419	8252
1	1426	8253
1	1445	8254
1	1469	8255
1	1495	8256
1	1526	8257
1	1548	8258
1	1557	8259
1	1559	8260
1	1553	8261
1	1533	8262
1	1504	8263
1	1476	8264
1	1440	8265
1	1412	8266
1	1384	8267
1	1370	8268
1	1360	8269
1	1364	8270
1	1373	8271
1	1394	8272
1	1415	8273
1	1437	8274
1	1472	8275
1	1507	8276
1	1553	8277
1	1595	8278
1	1634	8279
1	1647	8280
1	1639	8281
1	1622	8282
1	1593	8283
1	1554	8284
1	1503	8285
1	1456	8286
1	1409	8287
1	1367	8288
1	1330	8289
1	1306	8290
1	1297	8291
1	1302	8292
1	1319	8293
1	1355	8294
1	1398	8295
1	1441	8296
1	1484	8297
1	1526	8298
1	1557	8299
1	1584	8300
1	1598	8301
1	1603	8302
1	1593	8303
1	1566	8304
1	1538	8305
1	1513	8306
1	1498	8307
1	1490	8308
1	1508	8309
1	1539	8310
1	1583	8311
1	1638	8312
1	1699	8313
1	1767	8314
1	1851	8315
1	1932	8316
1	2014	8317
1	2089	8318
1	2157	8319
1	2222	8320
1	2282	8321
1	2328	8322
1	2370	8323
1	2412	8324
1	2433	8325
1	2445	8326
1	2449	8327
1	2445	8328
1	2424	8329
1	2379	8330
1	2341	8331
1	2280	8332
1	2201	8333
1	2124	8334
1	2052	8335
1	1975	8336
1	1895	8337
1	1811	8338
1	1734	8339
1	1674	8340
1	1633	8341
1	1607	8342
1	1598	8343
1	1597	8344
1	1600	8345
1	1607	8346
1	1610	8347
1	1615	8348
1	1605	8349
1	1599	8350
1	1594	8351
1	1599	8352
1	1616	8353
1	1641	8354
1	1670	8355
1	1703	8356
1	1737	8357
1	1765	8358
1	1791	8359
1	1811	8360
1	1818	8361
1	1817	8362
1	1796	8363
1	1764	8364
1	1737	8365
1	1704	8366
1	1682	8367
1	1660	8368
1	1647	8369
1	1625	8370
1	1603	8371
1	1582	8372
1	1571	8373
1	1566	8374
1	1568	8375
1	1572	8376
1	1580	8377
1	1589	8378
1	1602	8379
1	1629	8380
1	1655	8381
1	1667	8382
1	1675	8383
1	1683	8384
1	1677	8385
1	1660	8386
1	1621	8387
1	1575	8388
1	1518	8389
1	1465	8390
1	1422	8391
1	1384	8392
1	1364	8393
1	1361	8394
1	1371	8395
1	1399	8396
1	1438	8397
1	1476	8398
1	1512	8399
1	1535	8400
1	1553	8401
1	1566	8402
1	1573	8403
1	1569	8404
1	1555	8405
1	1529	8406
1	1503	8407
1	1476	8408
1	1449	8409
1	1428	8410
1	1424	8411
1	1431	8412
1	1449	8413
1	1487	8414
1	1533	8415
1	1589	8416
1	1642	8417
1	1687	8418
1	1712	8419
1	1723	8420
1	1724	8421
1	1719	8422
1	1703	8423
1	1676	8424
1	1649	8425
1	1623	8426
1	1593	8427
1	1559	8428
1	1528	8429
1	1489	8430
1	1453	8431
1	1435	8432
1	1412	8433
1	1411	8434
1	1422	8435
1	1447	8436
1	1483	8437
1	1529	8438
1	1572	8439
1	1616	8440
1	1659	8441
1	1687	8442
1	1713	8443
1	1729	8444
1	1729	8445
1	1718	8446
1	1710	8447
1	1690	8448
1	1670	8449
1	1649	8450
1	1631	8451
1	1609	8452
1	1593	8453
1	1579	8454
1	1577	8455
1	1580	8456
1	1582	8457
1	1582	8458
1	1583	8459
1	1577	8460
1	1566	8461
1	1550	8462
1	1530	8463
1	1515	8464
1	1497	8465
1	1487	8466
1	1488	8467
1	1497	8468
1	1503	8469
1	1527	8470
1	1555	8471
1	1586	8472
1	1618	8473
1	1647	8474
1	1661	8475
1	1662	8476
1	1662	8477
1	1667	8478
1	1675	8479
1	1683	8480
1	1693	8481
1	1701	8482
1	1703	8483
1	1692	8484
1	1678	8485
1	1647	8486
1	1608	8487
1	1575	8488
1	1549	8489
1	1530	8490
1	1529	8491
1	1543	8492
1	1557	8493
1	1593	8494
1	1634	8495
1	1675	8496
1	1707	8497
1	1725	8498
1	1726	8499
1	1724	8500
1	1717	8501
1	1704	8502
1	1686	8503
1	1668	8504
1	1644	8505
1	1618	8506
1	1594	8507
1	1576	8508
1	1559	8509
1	1553	8510
1	1550	8511
1	1555	8512
1	1566	8513
1	1581	8514
1	1607	8515
1	1644	8516
1	1683	8517
1	1721	8518
1	1764	8519
1	1785	8520
1	1802	8521
1	1819	8522
1	1832	8523
1	1842	8524
1	1840	8525
1	1827	8526
1	1809	8527
1	1790	8528
1	1764	8529
1	1755	8530
1	1754	8531
1	1767	8532
1	1791	8533
1	1827	8534
1	1856	8535
1	1870	8536
1	1897	8537
1	1906	8538
1	1913	8539
1	1921	8540
1	1927	8541
1	1935	8542
1	1939	8543
1	1932	8544
1	1921	8545
1	1896	8546
1	1861	8547
1	1818	8548
1	1773	8549
1	1738	8550
1	1711	8551
1	1690	8552
1	1686	8553
1	1697	8554
1	1721	8555
1	1762	8556
1	1817	8557
1	1869	8558
1	1908	8559
1	1937	8560
1	1951	8561
1	1958	8562
1	1952	8563
1	1940	8564
1	1911	8565
1	1870	8566
1	1821	8567
1	1774	8568
1	1736	8569
1	1701	8570
1	1678	8571
1	1672	8572
1	1675	8573
1	1684	8574
1	1696	8575
1	1711	8576
1	1721	8577
1	1723	8578
1	1726	8579
1	1723	8580
1	1710	8581
1	1686	8582
1	1660	8583
1	1634	8584
1	1607	8585
1	1581	8586
1	1555	8587
1	1539	8588
1	1522	8589
1	1521	8590
1	1537	8591
1	1557	8592
1	1581	8593
1	1605	8594
1	1628	8595
1	1654	8596
1	1676	8597
1	1688	8598
1	1692	8599
1	1686	8600
1	1683	8601
1	1674	8602
1	1660	8603
1	1634	8604
1	1603	8605
1	1567	8606
1	1530	8607
1	1500	8608
1	1477	8609
1	1459	8610
1	1453	8611
1	1465	8612
1	1493	8613
1	1529	8614
1	1575	8615
1	1621	8616
1	1662	8617
1	1692	8618
1	1695	8619
1	1687	8620
1	1665	8621
1	1633	8622
1	1585	8623
1	1542	8624
1	1494	8625
1	1451	8626
1	1424	8627
1	1412	8628
1	1415	8629
1	1426	8630
1	1435	8631
1	1448	8632
1	1467	8633
1	1487	8634
1	1507	8635
1	1528	8636
1	1548	8637
1	1559	8638
1	1569	8639
1	1584	8660
1	1612	8661
1	1633	8662
1	1646	8663
1	1643	8664
1	1633	8665
1	1615	8666
1	1595	8667
1	1581	8668
1	1581	8669
1	1583	8670
1	1585	8671
1	1585	8672
1	1589	8673
1	1593	8674
1	1589	8675
1	1573	8676
1	1555	8677
1	1540	8678
1	1525	8679
1	1559	8660
1	1546	8661
1	1529	8662
1	1512	8663
1	1490	8664
1	1468	8665
1	1449	8666
1	1436	8667
1	1422	8668
1	1398	8669
1	1376	8670
1	1359	8671
1	1349	8672
1	1350	8673
1	1366	8674
1	1384	8675
1	1418	8676
1	1459	8677
1	1503	8678
1	1546	8679
1	1516	8680
1	1510	8681
1	1503	8682
1	1485	8683
1	1471	8684
1	1453	8685
1	1450	8686
1	1450	8687
1	1450	8688
1	1449	8689
1	1449	8690
1	1440	8691
1	1424	8692
1	1404	8693
1	1390	8694
1	1374	8695
1	1373	8696
1	1384	8697
1	1410	8698
1	1440	8699
1	1467	8700
1	1495	8701
1	1514	8702
1	1520	8703
1	1517	8704
1	1507	8705
1	1494	8706
1	1485	8707
1	1480	8708
1	1476	8709
1	1476	8710
1	1481	8711
1	1485	8712
1	1485	8713
1	1494	8714
1	1506	8715
1	1523	8716
1	1537	8717
1	1553	8718
1	1561	8719
1	1566	8720
1	1569	8721
1	1569	8722
1	1569	8723
1	1557	8724
1	1553	8725
1	1543	8726
1	1529	8727
1	1504	8728
1	1481	8729
1	1454	8730
1	1425	8731
1	1413	8732
1	1400	8733
1	1401	8734
1	1406	8735
1	1420	8736
1	1435	8737
1	1454	8738
1	1477	8739
1	1503	8740
1	1518	8741
1	1527	8742
1	1524	8743
1	1523	8744
1	1523	8745
1	1526	8746
1	1528	8747
1	1521	8748
1	1508	8749
1	1494	8750
1	1485	8751
1	1476	8752
1	1467	8753
1	1456	8754
1	1459	8755
1	1469	8756
1	1489	8757
1	1515	8758
1	1553	8759
1	1586	8760
1	1613	8761
1	1634	8762
1	1641	8763
1	1632	8764
1	1605	8765
1	1567	8766
1	1529	8767
1	1495	8768
1	1464	8769
1	1441	8770
1	1424	8771
1	1418	8772
1	1424	8773
1	1448	8774
1	1469	8775
1	1494	8776
1	1518	8777
1	1544	8778
1	1567	8779
1	1593	8780
1	1608	8781
1	1625	8782
1	1629	8783
1	1609	8784
1	1583	8785
1	1548	8786
1	1506	8787
1	1472	8788
1	1443	8789
1	1416	8790
1	1398	8791
1	1396	8792
1	1398	8793
1	1405	8794
1	1422	8795
1	1439	8796
1	1463	8797
1	1484	8798
1	1494	8799
1	1503	8800
1	1507	8801
1	1510	8802
1	1505	8803
1	1503	8804
1	1500	8805
1	1493	8806
1	1484	8807
1	1472	8808
1	1456	8809
1	1447	8810
1	1442	8811
1	1446	8812
1	1464	8813
1	1489	8814
1	1520	8815
1	1551	8816
1	1580	8817
1	1603	8818
1	1626	8819
1	1643	8820
1	1658	8821
1	1664	8822
1	1665	8823
1	1658	8824
1	1636	8825
1	1608	8826
1	1575	8827
1	1537	8828
1	1497	8829
1	1463	8830
1	1436	8831
1	1413	8832
1	1397	8833
1	1384	8834
1	1372	8835
1	1363	8836
1	1370	8837
1	1381	8838
1	1403	8839
1	1432	8840
1	1459	8841
1	1485	8842
1	1504	8843
1	1515	8844
1	1520	8845
1	1514	8846
1	1503	8847
1	1489	8848
1	1479	8849
1	1474	8850
1	1476	8851
1	1476	8852
1	1476	8853
1	1478	8854
1	1478	8855
1	1484	8856
1	1500	8857
1	1526	8858
1	1548	8859
1	1572	8860
1	1589	8861
1	1598	8862
1	1600	8863
1	1599	8864
1	1585	8865
1	1564	8866
1	1542	8867
1	1521	8868
1	1503	8869
1	1490	8870
1	1476	8871
1	1461	8872
1	1450	8873
1	1442	8874
1	1449	8875
1	1459	8876
1	1476	8877
1	1494	8878
1	1530	8879
1	1503	8900
1	1514	8901
1	1517	8902
1	1517	8903
1	1503	8904
1	1490	8905
1	1476	8906
1	1458	8907
1	1445	8908
1	1441	8909
1	1440	8910
1	1447	8911
1	1469	8912
1	1503	8913
1	1542	8914
1	1586	8915
1	1634	8916
1	1679	8917
1	1712	8918
1	1723	8919
1	1562	8880
1	1593	8881
1	1616	8882
1	1632	8883
1	1634	8884
1	1634	8885
1	1629	8886
1	1620	8887
1	1608	8888
1	1583	8889
1	1553	8890
1	1526	8891
1	1503	8892
1	1476	8893
1	1460	8894
1	1450	8895
1	1451	8896
1	1459	8897
1	1475	8898
1	1487	8899
1	1701	8940
1	1712	8941
1	1717	8942
1	1708	8943
1	1687	8944
1	1662	8945
1	1641	8946
1	1613	8947
1	1593	8948
1	1567	8949
1	1553	8950
1	1547	8951
1	1553	8952
1	1561	8953
1	1580	8954
1	1589	8955
1	1605	8956
1	1628	8957
1	1654	8958
1	1682	8959
1	1729	8920
1	1728	8921
1	1724	8922
1	1712	8923
1	1698	8924
1	1674	8925
1	1650	8926
1	1629	8927
1	1605	8928
1	1581	8929
1	1572	8930
1	1559	8931
1	1563	8932
1	1574	8933
1	1589	8934
1	1607	8935
1	1631	8936
1	1649	8937
1	1672	8938
1	1689	8939
1	1704	8960
1	1717	8961
1	1723	8962
1	1724	8963
1	1715	8964
1	1700	8965
1	1681	8966
1	1647	8967
1	1608	8968
1	1577	8969
1	1540	8970
1	1512	8971
1	1490	8972
1	1481	8973
1	1487	8974
1	1504	8975
1	1535	8976
1	1579	8977
1	1628	8978
1	1672	8979
1	1764	9000
1	1796	9001
1	1824	9002
1	1836	9003
1	1839	9004
1	1829	9005
1	1800	9006
1	1757	9007
1	1706	9008
1	1643	9009
1	1594	9010
1	1562	9011
1	1543	9012
1	1535	9013
1	1540	9014
1	1547	9015
1	1564	9016
1	1589	9017
1	1614	9018
1	1638	9019
1	1713	8980
1	1744	8981
1	1762	8982
1	1766	8983
1	1763	8984
1	1737	8985
1	1706	8986
1	1674	8987
1	1634	8988
1	1593	8989
1	1558	8990
1	1539	8991
1	1529	8992
1	1529	8993
1	1536	8994
1	1559	8995
1	1598	8996
1	1645	8997
1	1688	8998
1	1735	8999
1	1660	9020
1	1672	9021
1	1676	9022
1	1674	9023
1	1665	9024
1	1664	9025
1	1654	9026
1	1634	9027
1	1609	9028
1	1589	9029
1	1577	9030
1	1571	9031
1	1585	9032
1	1594	9033
1	1616	9034
1	1648	9035
1	1689	9036
1	1730	9037
1	1769	9038
1	1812	9039
1	1842	9040
1	1856	9041
1	1855	9042
1	1844	9043
1	1814	9044
1	1765	9045
1	1710	9046
1	1660	9047
1	1616	9048
1	1583	9049
1	1566	9050
1	1556	9051
1	1566	9052
1	1582	9053
1	1600	9054
1	1633	9055
1	1664	9056
1	1693	9057
1	1717	9058
1	1750	9059
1	1766	9080
1	1778	9081
1	1783	9082
1	1776	9083
1	1757	9084
1	1728	9085
1	1699	9086
1	1669	9087
1	1634	9088
1	1590	9089
1	1556	9090
1	1536	9091
1	1535	9092
1	1556	9093
1	1598	9094
1	1647	9095
1	1706	9096
1	1769	9097
1	1824	9098
1	1856	9099
1	1869	9080
1	1869	9081
1	1850	9082
1	1823	9083
1	1785	9084
1	1747	9085
1	1701	9086
1	1656	9087
1	1609	9088
1	1581	9089
1	1558	9090
1	1555	9091
1	1561	9092
1	1581	9093
1	1609	9094
1	1645	9095
1	1684	9096
1	1716	9097
1	1744	9098
1	1752	9099
1	1760	9100
1	1760	9101
1	1751	9102
1	1731	9103
1	1707	9104
1	1675	9105
1	1644	9106
1	1615	9107
1	1593	9108
1	1575	9109
1	1572	9110
1	1582	9111
1	1607	9112
1	1646	9113
1	1685	9114
1	1734	9115
1	1786	9116
1	1832	9117
1	1866	9118
1	1895	9119
1	1908	9120
1	1911	9121
1	1896	9122
1	1874	9123
1	1847	9124
1	1821	9125
1	1792	9126
1	1764	9127
1	1738	9128
1	1704	9129
1	1679	9130
1	1661	9131
1	1647	9132
1	1641	9133
1	1648	9134
1	1656	9135
1	1657	9136
1	1679	9137
1	1705	9138
1	1734	9139
1	1759	9140
1	1778	9141
1	1795	9142
1	1815	9143
1	1822	9144
1	1836	9145
1	1843	9146
1	1843	9147
1	1845	9148
1	1839	9149
1	1829	9150
1	1820	9151
1	1809	9152
1	1798	9153
1	1800	9154
1	1817	9155
1	1838	9156
1	1860	9157
1	1892	9158
1	1914	9159
1	1935	9160
1	1950	9161
1	1962	9162
1	1960	9163
1	1948	9164
1	1909	9165
1	1854	9166
1	1778	9167
1	1698	9168
1	1611	9169
1	1531	9170
1	1467	9171
1	1424	9172
1	1410	9173
1	1425	9174
1	1471	9175
1	1537	9176
1	1623	9177
1	1718	9178
1	1823	9179
1	1910	9180
1	1978	9181
1	2024	9182
1	2037	9183
1	2012	9184
1	1955	9185
1	1885	9186
1	1817	9187
1	1751	9188
1	1700	9189
1	1660	9190
1	1633	9191
1	1615	9192
1	1609	9193
1	1633	9194
1	1661	9195
1	1708	9196
1	1755	9197
1	1801	9198
1	1848	9199
1	1886	9200
1	1921	9201
1	1940	9202
1	1944	9203
1	1924	9204
1	1904	9205
1	1880	9206
1	1845	9207
1	1808	9208
1	1778	9209
1	1752	9210
1	1746	9211
1	1755	9212
1	1780	9213
1	1813	9214
1	1839	9215
1	1856	9216
1	1869	9217
1	1877	9218
1	1870	9219
1	1860	9220
1	1844	9221
1	1817	9222
1	1778	9223
1	1744	9224
1	1710	9225
1	1675	9226
1	1646	9227
1	1618	9228
1	1595	9229
1	1581	9230
1	1569	9231
1	1572	9232
1	1592	9233
1	1618	9234
1	1654	9235
1	1690	9236
1	1738	9237
1	1793	9238
1	1860	9239
1	1922	9240
1	1976	9241
1	2030	9242
1	2068	9243
1	2105	9244
1	2136	9245
1	2175	9246
1	2228	9247
1	2277	9248
1	2317	9249
1	2364	9250
1	2402	9251
1	2444	9252
1	2480	9253
1	2515	9254
1	2540	9255
1	2570	9256
1	2599	9257
1	2619	9258
1	2623	9259
1	2609	9260
1	2581	9261
1	2527	9262
1	2466	9263
1	2368	9264
1	2266	9265
1	2160	9266
1	2063	9267
1	1973	9268
1	1899	9269
1	1838	9270
1	1783	9271
1	1746	9272
1	1728	9273
1	1724	9274
1	1729	9275
1	1746	9276
1	1773	9277
1	1811	9278
1	1838	9279
1	1859	9280
1	1872	9281
1	1877	9282
1	1870	9283
1	1868	9284
1	1854	9285
1	1832	9286
1	1795	9287
1	1759	9288
1	1725	9289
1	1689	9290
1	1667	9291
1	1660	9292
1	1662	9293
1	1680	9294
1	1703	9295
1	1728	9296
1	1757	9297
1	1791	9298
1	1830	9299
1	1847	9300
1	1858	9301
1	1868	9302
1	1872	9303
1	1870	9304
1	1856	9305
1	1830	9306
1	1791	9307
1	1755	9308
1	1716	9309
1	1693	9310
1	1677	9311
1	1665	9312
1	1655	9313
1	1653	9314
1	1655	9315
1	1671	9316
1	1697	9317
1	1723	9318
1	1749	9319
1	1768	9320
1	1780	9321
1	1772	9322
1	1751	9323
1	1712	9324
1	1667	9325
1	1623	9326
1	1585	9327
1	1561	9328
1	1547	9329
1	1534	9330
1	1526	9331
1	1517	9332
1	1530	9333
1	1543	9334
1	1566	9335
1	1596	9336
1	1629	9337
1	1660	9338
1	1695	9339
1	1710	9360
1	1704	9361
1	1695	9362
1	1675	9363
1	1658	9364
1	1635	9365
1	1618	9366
1	1607	9367
1	1598	9368
1	1590	9369
1	1593	9370
1	1602	9371
1	1611	9372
1	1632	9373
1	1652	9374
1	1670	9375
1	1686	9376
1	1699	9377
1	1712	9378
1	1724	9379
1	1723	9340
1	1743	9341
1	1753	9342
1	1756	9343
1	1751	9344
1	1728	9345
1	1710	9346
1	1698	9347
1	1679	9348
1	1651	9349
1	1621	9350
1	1595	9351
1	1574	9352
1	1563	9353
1	1559	9354
1	1575	9355
1	1602	9356
1	1635	9357
1	1668	9358
1	1697	9359
1	1737	9380
1	1743	9381
1	1744	9382
1	1738	9383
1	1723	9384
1	1712	9385
1	1700	9386
1	1679	9387
1	1652	9388
1	1634	9389
1	1626	9390
1	1624	9391
1	1621	9392
1	1625	9393
1	1633	9394
1	1644	9395
1	1660	9396
1	1677	9397
1	1697	9398
1	1713	9399
1	1741	9400
1	1764	9401
1	1789	9402
1	1803	9403
1	1827	9404
1	1830	9405
1	1829	9406
1	1823	9407
1	1817	9408
1	1813	9409
1	1798	9410
1	1791	9411
1	1783	9412
1	1786	9413
1	1786	9414
1	1791	9415
1	1811	9416
1	1824	9417
1	1841	9418
1	1859	9419
1	1869	9420
1	1869	9421
1	1869	9422
1	1863	9423
1	1843	9424
1	1809	9425
1	1765	9426
1	1724	9427
1	1685	9428
1	1645	9429
1	1618	9430
1	1608	9431
1	1612	9432
1	1634	9433
1	1671	9434
1	1708	9435
1	1739	9436
1	1781	9437
1	1817	9438
1	1843	9439
1	1871	9440
1	1898	9441
1	1922	9442
1	1944	9443
1	1949	9444
1	1953	9445
1	1944	9446
1	1922	9447
1	1895	9448
1	1869	9449
1	1830	9450
1	1812	9451
1	1793	9452
1	1793	9453
1	1796	9454
1	1818	9455
1	1847	9456
1	1885	9457
1	1926	9458
1	1963	9459
1	2003	9460
1	2034	9461
1	2048	9462
1	2048	9463
1	2036	9464
1	2005	9465
1	1971	9466
1	1936	9467
1	1908	9468
1	1886	9469
1	1869	9470
1	1862	9471
1	1860	9472
1	1863	9473
1	1862	9474
1	1868	9475
1	1869	9476
1	1875	9477
1	1891	9478
1	1914	9479
1	1935	9480
1	1952	9481
1	1963	9482
1	1971	9483
1	1973	9484
1	1969	9485
1	1957	9486
1	1948	9487
1	1942	9488
1	1935	9489
1	1931	9490
1	1922	9491
1	1904	9492
1	1878	9493
1	1854	9494
1	1827	9495
1	1803	9496
1	1788	9497
1	1776	9498
1	1776	9499
1	1783	9500
1	1793	9501
1	1809	9502
1	1817	9503
1	1813	9504
1	1808	9505
1	1791	9506
1	1774	9507
1	1755	9508
1	1738	9509
1	1717	9510
1	1700	9511
1	1683	9512
1	1661	9513
1	1644	9514
1	1634	9515
1	1634	9516
1	1648	9517
1	1672	9518
1	1690	9519
1	1721	9520
1	1752	9521
1	1779	9522
1	1788	9523
1	1782	9524
1	1754	9525
1	1723	9526
1	1693	9527
1	1661	9528
1	1626	9529
1	1590	9530
1	1551	9531
1	1526	9532
1	1516	9533
1	1520	9534
1	1530	9535
1	1547	9536
1	1566	9537
1	1582	9538
1	1595	9539
1	1599	9540
1	1612	9541
1	1633	9542
1	1642	9543
1	1647	9544
1	1651	9545
1	1649	9546
1	1642	9547
1	1623	9548
1	1590	9549
1	1559	9550
1	1535	9551
1	1521	9552
1	1517	9553
1	1528	9554
1	1534	9555
1	1544	9556
1	1556	9557
1	1577	9558
1	1594	9559
1	1612	9560
1	1626	9561
1	1634	9562
1	1630	9563
1	1611	9564
1	1593	9565
1	1572	9566
1	1555	9567
1	1532	9568
1	1515	9569
1	1491	9570
1	1472	9571
1	1462	9572
1	1467	9573
1	1485	9574
1	1508	9575
1	1531	9576
1	1555	9577
1	1566	9578
1	1559	9579
1	1555	9580
1	1542	9581
1	1526	9582
1	1506	9583
1	1494	9584
1	1472	9585
1	1450	9586
1	1440	9587
1	1441	9588
1	1449	9589
1	1450	9590
1	1464	9591
1	1484	9592
1	1507	9593
1	1536	9594
1	1563	9595
1	1587	9596
1	1607	9597
1	1618	9598
1	1623	9599
1	1616	9600
1	1608	9601
1	1606	9602
1	1604	9603
1	1599	9604
1	1596	9605
1	1590	9606
1	1584	9607
1	1581	9608
1	1569	9609
1	1563	9610
1	1562	9611
1	1558	9612
1	1557	9613
1	1562	9614
1	1561	9615
1	1560	9616
1	1557	9617
1	1555	9618
1	1554	9619
1	1549	9620
1	1541	9621
1	1530	9622
1	1521	9623
1	1511	9624
1	1507	9625
1	1505	9626
1	1502	9627
1	1495	9628
1	1491	9629
1	1490	9630
1	1500	9631
1	1517	9632
1	1534	9633
1	1557	9634
1	1576	9635
1	1593	9636
1	1607	9637
1	1625	9638
1	1640	9639
1	1659	9640
1	1678	9641
1	1698	9642
1	1715	9643
1	1719	9644
1	1703	9645
1	1670	9646
1	1625	9647
1	1566	9648
1	1494	9649
1	1431	9650
1	1392	9651
1	1372	9652
1	1381	9653
1	1418	9654
1	1471	9655
1	1539	9656
1	1611	9657
1	1681	9658
1	1738	9659
1	1776	9660
1	1801	9661
1	1817	9662
1	1814	9663
1	1791	9664
1	1765	9665
1	1726	9666
1	1670	9667
1	1604	9668
1	1535	9669
1	1481	9670
1	1450	9671
1	1436	9672
1	1438	9673
1	1464	9674
1	1492	9675
1	1529	9676
1	1568	9677
1	1607	9678
1	1643	9679
1	1670	9680
1	1693	9681
1	1708	9682
1	1709	9683
1	1689	9684
1	1665	9685
1	1639	9686
1	1616	9687
1	1602	9688
1	1602	9689
1	1607	9690
1	1618	9691
1	1635	9692
1	1660	9693
1	1683	9694
1	1688	9695
1	1691	9696
1	1685	9697
1	1670	9698
1	1648	9699
1	1634	9700
1	1634	9701
1	1638	9702
1	1647	9703
1	1660	9704
1	1661	9705
1	1662	9706
1	1660	9707
1	1658	9708
1	1643	9709
1	1624	9710
1	1607	9711
1	1599	9712
1	1607	9713
1	1621	9714
1	1651	9715
1	1686	9716
1	1717	9717
1	1742	9718
1	1765	9719
1	1777	9720
1	1770	9721
1	1757	9722
1	1733	9723
1	1698	9724
1	1660	9725
1	1625	9726
1	1594	9727
1	1571	9728
1	1551	9729
1	1542	9730
1	1537	9731
1	1544	9732
1	1562	9733
1	1585	9734
1	1611	9735
1	1639	9736
1	1665	9737
1	1706	9738
1	1734	9739
1	1746	9740
1	1747	9741
1	1740	9742
1	1730	9743
1	1715	9744
1	1699	9745
1	1683	9746
1	1668	9747
1	1660	9748
1	1655	9749
1	1646	9750
1	1661	9751
1	1669	9752
1	1676	9753
1	1672	9754
1	1661	9755
1	1658	9756
1	1660	9757
1	1667	9758
1	1674	9759
1	1685	9760
1	1688	9761
1	1687	9762
1	1690	9763
1	1698	9764
1	1695	9765
1	1684	9766
1	1672	9767
1	1656	9768
1	1635	9769
1	1616	9770
1	1598	9771
1	1585	9772
1	1587	9773
1	1600	9774
1	1633	9775
1	1669	9776
1	1706	9777
1	1751	9778
1	1796	9779
1	1839	9780
1	1857	9781
1	1859	9782
1	1848	9783
1	1830	9784
1	1808	9785
1	1766	9786
1	1723	9787
1	1680	9788
1	1637	9789
1	1611	9790
1	1605	9791
1	1609	9792
1	1629	9793
1	1652	9794
1	1676	9795
1	1701	9796
1	1719	9797
1	1733	9798
1	1738	9799
1	1731	9800
1	1727	9801
1	1722	9802
1	1715	9803
1	1695	9804
1	1665	9805
1	1625	9806
1	1576	9807
1	1529	9808
1	1497	9809
1	1476	9810
1	1474	9811
1	1476	9812
1	1488	9813
1	1513	9814
1	1551	9815
1	1596	9816
1	1646	9817
1	1694	9818
1	1725	9819
1	1751	9820
1	1764	9821
1	1770	9822
1	1772	9823
1	1764	9824
1	1742	9825
1	1713	9826
1	1683	9827
1	1645	9828
1	1594	9829
1	1548	9830
1	1508	9831
1	1485	9832
1	1474	9833
1	1490	9834
1	1529	9835
1	1579	9836
1	1636	9837
1	1695	9838
1	1751	9839
1	1784	9840
1	1809	9841
1	1816	9842
1	1803	9843
1	1783	9844
1	1761	9845
1	1730	9846
1	1691	9847
1	1656	9848
1	1611	9849
1	1581	9850
1	1555	9851
1	1542	9852
1	1544	9853
1	1570	9854
1	1594	9855
1	1629	9856
1	1668	9857
1	1711	9858
1	1754	9859
1	1792	9860
1	1817	9861
1	1817	9862
1	1793	9863
1	1760	9864
1	1727	9865
1	1692	9866
1	1660	9867
1	1629	9868
1	1600	9869
1	1566	9870
1	1538	9871
1	1526	9872
1	1520	9873
1	1519	9874
1	1529	9875
1	1540	9876
1	1562	9877
1	1593	9878
1	1619	9879
1	1643	9880
1	1660	9881
1	1660	9882
1	1643	9883
1	1615	9884
1	1567	9885
1	1513	9886
1	1461	9887
1	1424	9888
1	1381	9889
1	1358	9890
1	1355	9891
1	1372	9892
1	1409	9893
1	1454	9894
1	1512	9895
1	1566	9896
1	1623	9897
1	1671	9898
1	1712	9899
1	1738	9900
1	1749	9901
1	1750	9902
1	1737	9903
1	1710	9904
1	1672	9905
1	1636	9906
1	1605	9907
1	1579	9908
1	1546	9909
1	1529	9910
1	1518	9911
1	1517	9912
1	1525	9913
1	1544	9914
1	1563	9915
1	1587	9916
1	1619	9917
1	1647	9918
1	1675	9919
1	1697	9920
1	1713	9921
1	1719	9922
1	1711	9923
1	1682	9924
1	1647	9925
1	1607	9926
1	1575	9927
1	1549	9928
1	1534	9929
1	1528	9930
1	1529	9931
1	1542	9932
1	1555	9933
1	1580	9934
1	1605	9935
1	1629	9936
1	1642	9937
1	1644	9938
1	1636	9939
1	1621	9940
1	1593	9941
1	1555	9942
1	1518	9943
1	1485	9944
1	1450	9945
1	1422	9946
1	1392	9947
1	1374	9948
1	1368	9949
1	1372	9950
1	1397	9951
1	1424	9952
1	1461	9953
1	1503	9954
1	1557	9955
1	1613	9956
1	1665	9957
1	1712	9958
1	1754	9959
1	1780	9960
1	1791	9961
1	1800	9962
1	1800	9963
1	1788	9964
1	1764	9965
1	1725	9966
1	1683	9967
1	1638	9968
1	1589	9969
1	1550	9970
1	1523	9971
1	1503	9972
1	1501	9973
1	1522	9974
1	1553	9975
1	1593	9976
1	1637	9977
1	1677	9978
1	1706	9979
1	1723	9980
1	1729	9981
1	1727	9982
1	1706	9983
1	1672	9984
1	1633	9985
1	1584	9986
1	1541	9987
1	1505	9988
1	1488	9989
1	1472	9990
1	1462	9991
1	1458	9992
1	1468	9993
1	1485	9994
1	1508	9995
1	1542	9996
1	1580	9997
1	1611	9998
1	1634	9999
1	1660	10000
1	1678	10001
1	1686	10002
1	1679	10003
1	1660	10004
1	1618	10005
1	1579	10006
1	1536	10007
1	1490	10008
1	1454	10009
1	1432	10010
1	1415	10011
1	1407	10012
1	1414	10013
1	1430	10014
1	1461	10015
1	1503	10016
1	1554	10017
1	1606	10018
1	1664	10019
1	1710	10020
1	1749	10021
1	1773	10022
1	1787	10023
1	1783	10024
1	1773	10025
1	1757	10026
1	1737	10027
1	1710	10028
1	1670	10029
1	1638	10030
1	1611	10031
1	1590	10032
1	1580	10033
1	1580	10034
1	1580	10035
1	1584	10036
1	1592	10037
1	1598	10038
1	1606	10039
1	1610	10040
1	1624	10041
1	1636	10042
1	1647	10043
1	1647	10044
1	1656	10045
1	1659	10046
1	1660	10047
1	1656	10048
1	1654	10049
1	1652	10050
1	1660	10051
1	1661	10052
1	1666	10053
1	1678	10054
1	1690	10055
1	1712	10056
1	1733	10057
1	1750	10058
1	1754	10059
1	1755	10060
1	1751	10061
1	1737	10062
1	1711	10063
1	1691	10064
1	1670	10065
1	1655	10066
1	1636	10067
1	1620	10068
1	1602	10069
1	1585	10070
1	1575	10071
1	1563	10072
1	1551	10073
1	1538	10074
1	1539	10075
1	1553	10076
1	1564	10077
1	1569	10078
1	1584	10079
1	1595	10080
1	1615	10081
1	1635	10082
1	1647	10083
1	1654	10084
1	1651	10085
1	1649	10086
1	1641	10087
1	1625	10088
1	1598	10089
1	1580	10090
1	1571	10091
1	1568	10092
1	1566	10093
1	1570	10094
1	1571	10095
1	1579	10096
1	1584	10097
1	1593	10098
1	1598	10099
1	1595	10100
1	1593	10101
1	1587	10102
1	1577	10103
1	1556	10104
1	1544	10105
1	1529	10106
1	1515	10107
1	1503	10108
1	1494	10109
1	1476	10110
