#Date:= 2024-10-08T16:00:47.988473
#Sampling Rate(Hz):= 1000
#Labels:= LOD	ECG	TS
1	1615	20
1	1628	21
1	1647	22
1	1677	23
1	1700	24
1	1715	25
1	1727	26
1	1729	27
1	1727	28
1	1719	29
1	1713	30
1	1703	31
1	1460	32
1	1452	33
1	1449	34
1	1455	35
1	1488	36
1	1531	37
1	1590	38
1	1647	39
1	1698	40
1	1739	41
1	1777	42
1	1808	43
1	1825	44
1	1826	45
1	1817	46
1	1803	47
1	1779	48
1	1741	49
1	1691	50
1	1638	51
1	1584	52
1	1541	53
1	1507	54
1	1495	55
1	1500	56
1	1513	57
1	1536	58
1	1569	59
1	1602	60
1	1634	61
1	1660	62
1	1688	63
1	1706	64
1	1715	65
1	1719	66
1	1710	67
1	1691	68
1	1660	69
1	1622	70
1	1575	71
1	1539	72
1	1510	73
1	1503	74
1	1505	75
1	1525	76
1	1553	77
1	1590	78
1	1634	79
1	1675	80
1	1714	81
1	1739	82
1	1743	83
1	1737	84
1	1712	85
1	1680	86
1	1636	87
1	1588	88
1	1533	89
1	1476	90
1	1422	91
1	1372	92
1	1337	93
1	1323	94
1	1328	95
1	1346	96
1	1377	97
1	1427	98
1	1477	99
1	1535	100
1	1587	101
1	1631	102
1	1655	103
1	1665	104
1	1665	105
1	1657	106
1	1636	107
1	1608	108
1	1576	109
1	1530	110
1	1490	111
1	1450	112
1	1423	113
1	1402	114
1	1400	115
1	1413	116
1	1436	117
1	1466	118
1	1501	119
1	1542	120
1	1580	121
1	1608	122
1	1633	123
1	1638	124
1	1634	125
1	1616	126
1	1589	127
1	1553	128
1	1504	129
1	1464	130
1	1427	131
1	1400	132
1	1374	133
1	1373	134
1	1395	135
1	1427	136
1	1464	137
1	1503	138
1	1551	139
1	1576	160
1	1631	161
1	1668	162
1	1687	163
1	1700	164
1	1689	165
1	1659	166
1	1613	167
1	1555	168
1	1485	169
1	1421	170
1	1362	171
1	1324	172
1	1296	173
1	1289	174
1	1305	175
1	1338	176
1	1396	177
1	1463	178
1	1530	179
1	1581	140
1	1603	141
1	1625	142
1	1632	143
1	1617	144
1	1586	145
1	1545	146
1	1499	147
1	1446	148
1	1398	149
1	1351	150
1	1319	151
1	1297	152
1	1296	153
1	1306	154
1	1332	155
1	1364	156
1	1411	157
1	1460	158
1	1516	159
1	1597	180
1	1659	181
1	1712	182
1	1763	183
1	1794	184
1	1819	185
1	1835	186
1	1843	187
1	1848	188
1	1856	189
1	1869	190
1	1897	191
1	1947	192
1	2003	193
1	2081	194
1	2179	195
1	2290	196
1	2415	197
1	2538	198
1	2649	199
1	2753	200
1	2850	201
1	2930	202
1	2982	203
1	3013	204
1	3017	205
1	2998	206
1	2951	207
1	2877	208
1	2782	209
1	2664	210
1	2535	211
1	2419	212
1	2299	213
1	2194	214
1	2117	215
1	2053	216
1	2016	217
1	1999	218
1	1991	219
1	1986	220
1	1983	221
1	1976	222
1	1965	223
1	1948	224
1	1919	225
1	1878	226
1	1831	227
1	1757	228
1	1683	229
1	1607	230
1	1543	231
1	1484	232
1	1438	233
1	1396	234
1	1354	235
1	1332	236
1	1319	237
1	1320	238
1	1325	239
1	1503	260
1	1558	261
1	1606	262
1	1631	263
1	1636	264
1	1616	265
1	1575	266
1	1521	267
1	1464	268
1	1416	269
1	1372	270
1	1334	271
1	1310	272
1	1290	273
1	1278	274
1	1281	275
1	1305	276
1	1346	277
1	1400	278
1	1454	279
1	1328	240
1	1324	241
1	1319	242
1	1301	243
1	1282	244
1	1260	245
1	1230	246
1	1202	247
1	1167	248
1	1132	249
1	1103	250
1	1084	251
1	1084	252
1	1098	253
1	1132	254
1	1177	255
1	1238	256
1	1298	257
1	1368	258
1	1436	259
1	1507	280
1	1553	281
1	1595	282
1	1625	283
1	1644	284
1	1638	285
1	1603	286
1	1546	287
1	1481	288
1	1412	289
1	1346	290
1	1288	291
1	1245	292
1	1220	293
1	1215	294
1	1232	295
1	1267	296
1	1314	297
1	1368	298
1	1428	299
1	1485	300
1	1538	301
1	1581	302
1	1617	303
1	1634	304
1	1634	305
1	1621	306
1	1585	307
1	1543	308
1	1494	309
1	1450	310
1	1403	311
1	1363	312
1	1328	313
1	1314	314
1	1319	315
1	1346	316
1	1399	317
1	1456	318
1	1517	319
1	1572	320
1	1620	321
1	1660	322
1	1680	323
1	1686	324
1	1680	325
1	1652	326
1	1607	327
1	1553	328
1	1503	329
1	1463	330
1	1428	331
1	1398	332
1	1380	333
1	1369	334
1	1380	335
1	1406	336
1	1440	337
1	1487	338
1	1528	339
1	1576	340
1	1619	341
1	1647	342
1	1661	343
1	1669	344
1	1655	345
1	1625	346
1	1575	347
1	1517	348
1	1450	349
1	1393	350
1	1337	351
1	1315	352
1	1301	353
1	1305	354
1	1324	355
1	1357	356
1	1405	357
1	1454	358
1	1508	359
1	1609	380
1	1652	381
1	1690	382
1	1720	383
1	1736	384
1	1719	385
1	1686	386
1	1634	387
1	1577	388
1	1521	389
1	1474	390
1	1436	391
1	1413	392
1	1413	393
1	1424	394
1	1446	395
1	1486	396
1	1533	397
1	1586	398
1	1639	399
1	1563	360
1	1613	361
1	1659	362
1	1700	363
1	1728	364
1	1739	365
1	1727	366
1	1697	367
1	1660	368
1	1613	369
1	1563	370
1	1513	371
1	1476	372
1	1448	373
1	1437	374
1	1438	375
1	1451	376
1	1482	377
1	1527	378
1	1569	379
1	1692	400
1	1740	401
1	1777	402
1	1790	403
1	1786	404
1	1762	405
1	1725	406
1	1686	407
1	1634	408
1	1581	409
1	1534	410
1	1501	411
1	1478	412
1	1476	413
1	1481	414
1	1503	415
1	1539	416
1	1582	417
1	1634	418
1	1686	419
1	1789	440
1	1841	441
1	1870	442
1	1881	443
1	1877	444
1	1845	445
1	1793	446
1	1727	447
1	1656	448
1	1592	449
1	1540	450
1	1499	451
1	1475	452
1	1471	453
1	1477	454
1	1503	455
1	1553	456
1	1607	457
1	1672	458
1	1731	459
1	1738	420
1	1785	421
1	1819	422
1	1831	423
1	1818	424
1	1788	425
1	1746	426
1	1701	427
1	1657	428
1	1615	429
1	1574	430
1	1537	431
1	1500	432
1	1476	433
1	1476	434
1	1492	435
1	1529	436
1	1584	437
1	1652	438
1	1724	439
1	1751	480
1	1791	481
1	1819	482
1	1843	483
1	1842	484
1	1825	485
1	1787	486
1	1744	487
1	1697	488
1	1647	489
1	1602	490
1	1565	491
1	1538	492
1	1513	493
1	1502	494
1	1499	495
1	1507	496
1	1537	497
1	1582	498
1	1631	499
1	1782	460
1	1832	461
1	1863	462
1	1869	463
1	1864	464
1	1842	465
1	1800	466
1	1758	467
1	1718	468
1	1675	469
1	1638	470
1	1607	471
1	1582	472
1	1573	473
1	1577	474
1	1584	475
1	1607	476
1	1634	477
1	1671	478
1	1712	479
1	1681	500
1	1728	501
1	1769	502
1	1791	503
1	1791	504
1	1760	505
1	1715	506
1	1667	507
1	1609	508
1	1559	509
1	1520	510
1	1484	511
1	1462	512
1	1448	513
1	1450	514
1	1462	515
1	1485	516
1	1525	517
1	1579	518
1	1633	519
1	1620	540
1	1659	541
1	1687	542
1	1703	543
1	1698	544
1	1674	545
1	1639	546
1	1607	547
1	1570	548
1	1535	549
1	1503	550
1	1474	551
1	1445	552
1	1422	553
1	1415	554
1	1429	555
1	1461	556
1	1506	557
1	1568	558
1	1634	559
1	1686	520
1	1731	521
1	1759	522
1	1764	523
1	1761	524
1	1748	525
1	1726	526
1	1701	527
1	1660	528
1	1613	529
1	1571	530
1	1524	531
1	1480	532
1	1454	533
1	1440	534
1	1449	535
1	1476	536
1	1502	537
1	1537	538
1	1580	539
1	1697	560
1	1751	561
1	1788	562
1	1803	563
1	1796	564
1	1767	565
1	1723	566
1	1661	567
1	1584	568
1	1507	569
1	1438	570
1	1371	571
1	1328	572
1	1310	573
1	1319	574
1	1358	575
1	1420	576
1	1490	577
1	1569	578
1	1644	579
1	1598	600
1	1655	601
1	1699	602
1	1733	603
1	1739	604
1	1734	605
1	1712	606
1	1682	607
1	1642	608
1	1598	609
1	1552	610
1	1507	611
1	1474	612
1	1446	613
1	1431	614
1	1430	615
1	1445	616
1	1481	617
1	1523	618
1	1568	619
1	1705	580
1	1759	581
1	1802	582
1	1828	583
1	1831	584
1	1811	585
1	1765	586
1	1717	587
1	1667	588
1	1611	589
1	1557	590
1	1503	591
1	1462	592
1	1431	593
1	1419	594
1	1423	595
1	1436	596
1	1462	597
1	1499	598
1	1544	599
1	1616	620
1	1660	621
1	1687	622
1	1705	623
1	1708	624
1	1696	625
1	1665	626
1	1624	627
1	1569	628
1	1528	629
1	1494	630
1	1467	631
1	1454	632
1	1449	633
1	1450	634
1	1477	635
1	1503	636
1	1549	637
1	1585	638
1	1620	639
1	1660	640
1	1707	641
1	1744	642
1	1769	643
1	1772	644
1	1751	645
1	1709	646
1	1655	647
1	1594	648
1	1531	649
1	1473	650
1	1419	651
1	1381	652
1	1356	653
1	1350	654
1	1363	655
1	1398	656
1	1440	657
1	1492	658
1	1554	659
1	1620	660
1	1681	661
1	1723	662
1	1753	663
1	1752	664
1	1738	665
1	1712	666
1	1679	667
1	1634	668
1	1582	669
1	1530	670
1	1481	671
1	1449	672
1	1426	673
1	1428	674
1	1450	675
1	1477	676
1	1514	677
1	1559	678
1	1611	679
1	1672	680
1	1728	681
1	1769	682
1	1791	683
1	1791	684
1	1773	685
1	1742	686
1	1705	687
1	1654	688
1	1607	689
1	1561	690
1	1524	691
1	1489	692
1	1471	693
1	1459	694
1	1467	695
1	1499	696
1	1541	697
1	1600	698
1	1666	699
1	1731	700
1	1775	701
1	1798	702
1	1803	703
1	1800	704
1	1780	705
1	1742	706
1	1699	707
1	1641	708
1	1574	709
1	1502	710
1	1435	711
1	1382	712
1	1350	713
1	1345	714
1	1361	715
1	1401	716
1	1456	717
1	1512	718
1	1567	719
1	1676	740
1	1716	741
1	1737	742
1	1743	743
1	1744	744
1	1739	745
1	1736	746
1	1714	747
1	1679	748
1	1635	749
1	1596	750
1	1557	751
1	1528	752
1	1515	753
1	1511	754
1	1527	755
1	1560	756
1	1610	757
1	1674	758
1	1737	759
1	1625	720
1	1674	721
1	1712	722
1	1733	723
1	1737	724
1	1734	725
1	1721	726
1	1708	727
1	1686	728
1	1657	729
1	1623	730
1	1583	731
1	1549	732
1	1516	733
1	1494	734
1	1485	735
1	1494	736
1	1524	737
1	1566	738
1	1620	739
1	1791	760
1	1839	761
1	1868	762
1	1873	763
1	1863	764
1	1835	765
1	1789	766
1	1736	767
1	1679	768
1	1612	769
1	1555	770
1	1505	771
1	1474	772
1	1454	773
1	1451	774
1	1464	775
1	1492	776
1	1536	777
1	1591	778
1	1650	779
1	1713	780
1	1770	781
1	1826	782
1	1863	783
1	1880	784
1	1881	785
1	1869	786
1	1853	787
1	1829	788
1	1791	789
1	1747	790
1	1703	791
1	1665	792
1	1632	793
1	1607	794
1	1598	795
1	1607	796
1	1639	797
1	1699	798
1	1760	799
1	1827	800
1	1875	801
1	1908	802
1	1917	803
1	1909	804
1	1880	805
1	1829	806
1	1760	807
1	1686	808
1	1625	809
1	1572	810
1	1529	811
1	1503	812
1	1490	813
1	1498	814
1	1530	815
1	1577	816
1	1621	817
1	1669	818
1	1713	819
1	1759	820
1	1791	821
1	1815	822
1	1811	823
1	1800	824
1	1787	825
1	1764	826
1	1734	827
1	1698	828
1	1657	829
1	1608	830
1	1567	831
1	1531	832
1	1515	833
1	1507	834
1	1521	835
1	1556	836
1	1607	837
1	1656	838
1	1708	839
1	1750	840
1	1776	841
1	1791	842
1	1795	843
1	1783	844
1	1755	845
1	1723	846
1	1698	847
1	1660	848
1	1616	849
1	1580	850
1	1543	851
1	1515	852
1	1491	853
1	1485	854
1	1498	855
1	1526	856
1	1560	857
1	1607	858
1	1647	859
1	1689	860
1	1729	861
1	1751	862
1	1760	863
1	1751	864
1	1724	865
1	1686	866
1	1639	867
1	1582	868
1	1530	869
1	1485	870
1	1449	871
1	1431	872
1	1424	873
1	1436	874
1	1453	875
1	1482	876
1	1521	877
1	1561	878
1	1600	879
1	1726	900
1	1746	901
1	1755	902
1	1751	903
1	1738	904
1	1715	905
1	1675	906
1	1631	907
1	1574	908
1	1520	909
1	1472	910
1	1432	911
1	1399	912
1	1372	913
1	1372	914
1	1395	915
1	1428	916
1	1476	917
1	1529	918
1	1580	919
1	1634	880
1	1660	881
1	1678	882
1	1681	883
1	1686	884
1	1683	885
1	1668	886
1	1650	887
1	1611	888
1	1576	889
1	1540	890
1	1510	891
1	1492	892
1	1489	893
1	1499	894
1	1522	895
1	1554	896
1	1597	897
1	1642	898
1	1686	899
1	1629	920
1	1670	921
1	1701	922
1	1725	923
1	1739	924
1	1750	925
1	1751	926
1	1737	927
1	1703	928
1	1670	929
1	1639	930
1	1624	931
1	1636	932
1	1668	933
1	1712	934
1	1780	935
1	1869	936
1	1969	937
1	2079	938
1	2178	939
1	2287	940
1	2382	941
1	2466	942
1	2523	943
1	2572	944
1	2612	945
1	2652	946
1	2685	947
1	2706	948
1	2730	949
1	2751	950
1	2764	951
1	2777	952
1	2778	953
1	2774	954
1	2770	955
1	2764	956
1	2755	957
1	2734	958
1	2704	959
1	2667	960
1	2619	961
1	2555	962
1	2496	963
1	2412	964
1	2314	965
1	2207	966
1	2105	967
1	2006	968
1	1921	969
1	1841	970
1	1767	971
1	1726	972
1	1709	973
1	1714	974
1	1733	975
1	1742	976
1	1753	977
1	1754	978
1	1755	979
1	1751	980
1	1742	981
1	1717	982
1	1682	983
1	1632	984
1	1570	985
1	1503	986
1	1436	987
1	1359	988
1	1293	989
1	1237	990
1	1188	991
1	1152	992
1	1130	993
1	1126	994
1	1142	995
1	1178	996
1	1228	997
1	1291	998
1	1359	999
1	1431	1000
1	1491	1001
1	1543	1002
1	1569	1003
1	1573	1004
1	1556	1005
1	1529	1006
1	1494	1007
1	1448	1008
1	1398	1009
1	1358	1010
1	1332	1011
1	1319	1012
1	1319	1013
1	1337	1014
1	1369	1015
1	1416	1016
1	1469	1017
1	1517	1018
1	1560	1019
1	1604	1020
1	1643	1021
1	1684	1022
1	1703	1023
1	1705	1024
1	1679	1025
1	1634	1026
1	1581	1027
1	1526	1028
1	1464	1029
1	1413	1030
1	1369	1031
1	1337	1032
1	1319	1033
1	1322	1034
1	1345	1035
1	1373	1036
1	1422	1037
1	1466	1038
1	1517	1039
1	1568	1040
1	1607	1041
1	1633	1042
1	1643	1043
1	1642	1044
1	1630	1045
1	1607	1046
1	1566	1047
1	1510	1048
1	1452	1049
1	1400	1050
1	1353	1051
1	1321	1052
1	1305	1053
1	1315	1054
1	1346	1055
1	1402	1056
1	1471	1057
1	1544	1058
1	1608	1059
1	1662	1060
1	1706	1061
1	1733	1062
1	1731	1063
1	1717	1064
1	1688	1065
1	1646	1066
1	1593	1067
1	1544	1068
1	1490	1069
1	1445	1070
1	1413	1071
1	1393	1072
1	1381	1073
1	1397	1074
1	1424	1075
1	1467	1076
1	1526	1077
1	1585	1078
1	1650	1079
1	1569	1100
1	1607	1101
1	1646	1102
1	1671	1103
1	1675	1104
1	1665	1105
1	1652	1106
1	1626	1107
1	1592	1108
1	1565	1109
1	1537	1110
1	1510	1111
1	1493	1112
1	1476	1113
1	1464	1114
1	1466	1115
1	1488	1116
1	1525	1117
1	1565	1118
1	1608	1119
1	1702	1080
1	1742	1081
1	1769	1082
1	1778	1083
1	1773	1084
1	1754	1085
1	1724	1086
1	1683	1087
1	1626	1088
1	1566	1089
1	1508	1090
1	1465	1091
1	1432	1092
1	1409	1093
1	1404	1094
1	1418	1095
1	1437	1096
1	1468	1097
1	1497	1098
1	1530	1099
1	1655	1120
1	1693	1121
1	1726	1122
1	1733	1123
1	1726	1124
1	1709	1125
1	1674	1126
1	1634	1127
1	1587	1128
1	1542	1129
1	1503	1130
1	1481	1131
1	1478	1132
1	1492	1133
1	1510	1134
1	1553	1135
1	1598	1136
1	1652	1137
1	1702	1138
1	1752	1139
1	1764	1160
1	1817	1161
1	1845	1162
1	1864	1163
1	1868	1164
1	1849	1165
1	1800	1166
1	1744	1167
1	1682	1168
1	1626	1169
1	1581	1170
1	1544	1171
1	1529	1172
1	1521	1173
1	1525	1174
1	1546	1175
1	1584	1176
1	1634	1177
1	1691	1178
1	1752	1179
1	1818	1180
1	1877	1181
1	1921	1182
1	1936	1183
1	1930	1184
1	1908	1185
1	1862	1186
1	1817	1187
1	1751	1188
1	1692	1189
1	1634	1190
1	1582	1191
1	1545	1192
1	1532	1193
1	1540	1194
1	1567	1195
1	1602	1196
1	1647	1197
1	1697	1198
1	1753	1199
1	1817	1200
1	1865	1201
1	1903	1202
1	1921	1203
1	1922	1204
1	1908	1205
1	1873	1206
1	1831	1207
1	1777	1208
1	1721	1209
1	1665	1210
1	1620	1211
1	1587	1212
1	1570	1213
1	1579	1214
1	1599	1215
1	1634	1216
1	1684	1217
1	1739	1218
1	1808	1219
1	1798	1140
1	1839	1141
1	1861	1142
1	1868	1143
1	1854	1144
1	1817	1145
1	1759	1146
1	1710	1147
1	1647	1148
1	1586	1149
1	1529	1150
1	1481	1151
1	1449	1152
1	1435	1153
1	1446	1154
1	1475	1155
1	1513	1156
1	1569	1157
1	1634	1158
1	1699	1159
1	1726	1240
1	1742	1241
1	1762	1242
1	1773	1243
1	1780	1244
1	1777	1245
1	1764	1246
1	1741	1247
1	1713	1248
1	1688	1249
1	1663	1250
1	1646	1251
1	1634	1252
1	1623	1253
1	1619	1254
1	1619	1255
1	1625	1256
1	1634	1257
1	1647	1258
1	1672	1259
1	1864	1220
1	1909	1221
1	1939	1222
1	1953	1223
1	1953	1224
1	1937	1225
1	1904	1226
1	1862	1227
1	1816	1228
1	1769	1229
1	1729	1230
1	1687	1231
1	1660	1232
1	1642	1233
1	1628	1234
1	1636	1235
1	1646	1236
1	1674	1237
1	1697	1238
1	1711	1239
1	1703	1260
1	1736	1261
1	1760	1262
1	1775	1263
1	1769	1264
1	1751	1265
1	1731	1266
1	1704	1267
1	1669	1268
1	1633	1269
1	1606	1270
1	1581	1271
1	1566	1272
1	1553	1273
1	1553	1274
1	1564	1275
1	1582	1276
1	1618	1277
1	1647	1278
1	1673	1279
1	1697	1280
1	1716	1281
1	1728	1282
1	1729	1283
1	1720	1284
1	1698	1285
1	1665	1286
1	1631	1287
1	1581	1288
1	1534	1289
1	1489	1290
1	1454	1291
1	1446	1292
1	1449	1293
1	1467	1294
1	1498	1295
1	1536	1296
1	1587	1297
1	1647	1298
1	1712	1299
1	1773	1300
1	1830	1301
1	1862	1302
1	1869	1303
1	1852	1304
1	1817	1305
1	1757	1306
1	1702	1307
1	1647	1308
1	1602	1309
1	1560	1310
1	1525	1311
1	1491	1312
1	1472	1313
1	1469	1314
1	1487	1315
1	1521	1316
1	1564	1317
1	1607	1318
1	1656	1319
1	1702	1320
1	1737	1321
1	1764	1322
1	1772	1323
1	1767	1324
1	1753	1325
1	1731	1326
1	1694	1327
1	1657	1328
1	1613	1329
1	1573	1330
1	1535	1331
1	1511	1332
1	1499	1333
1	1500	1334
1	1518	1335
1	1548	1336
1	1582	1337
1	1626	1338
1	1674	1339
1	1717	1340
1	1770	1341
1	1802	1342
1	1813	1343
1	1791	1344
1	1762	1345
1	1721	1346
1	1675	1347
1	1631	1348
1	1586	1349
1	1551	1350
1	1518	1351
1	1494	1352
1	1476	1353
1	1476	1354
1	1480	1355
1	1503	1356
1	1542	1357
1	1593	1358
1	1643	1359
1	1634	1380
1	1688	1381
1	1738	1382
1	1769	1383
1	1785	1384
1	1776	1385
1	1750	1386
1	1710	1387
1	1665	1388
1	1621	1389
1	1574	1390
1	1529	1391
1	1492	1392
1	1467	1393
1	1464	1394
1	1479	1395
1	1510	1396
1	1557	1397
1	1607	1398
1	1655	1399
1	1687	1360
1	1724	1361
1	1749	1362
1	1757	1363
1	1757	1364
1	1752	1365
1	1738	1366
1	1712	1367
1	1682	1368
1	1633	1369
1	1575	1370
1	1521	1371
1	1476	1372
1	1450	1373
1	1439	1374
1	1446	1375
1	1464	1376
1	1500	1377
1	1535	1378
1	1581	1379
1	1704	1400
1	1749	1401
1	1780	1402
1	1793	1403
1	1792	1404
1	1782	1405
1	1763	1406
1	1727	1407
1	1674	1408
1	1619	1409
1	1565	1410
1	1517	1411
1	1490	1412
1	1474	1413
1	1475	1414
1	1491	1415
1	1526	1416
1	1571	1417
1	1626	1418
1	1686	1419
1	1734	1420
1	1762	1421
1	1775	1422
1	1766	1423
1	1751	1424
1	1724	1425
1	1682	1426
1	1632	1427
1	1575	1428
1	1516	1429
1	1464	1430
1	1433	1431
1	1418	1432
1	1425	1433
1	1445	1434
1	1476	1435
1	1523	1436
1	1570	1437
1	1618	1438
1	1669	1439
1	1743	1480
1	1767	1481
1	1779	1482
1	1775	1483
1	1766	1484
1	1753	1485
1	1729	1486
1	1699	1487
1	1660	1488
1	1620	1489
1	1581	1490
1	1543	1491
1	1517	1492
1	1510	1493
1	1529	1494
1	1561	1495
1	1607	1496
1	1661	1497
1	1715	1498
1	1773	1499
1	1742	1460
1	1769	1461
1	1776	1462
1	1767	1463
1	1752	1464
1	1733	1465
1	1703	1466
1	1670	1467
1	1620	1468
1	1576	1469
1	1535	1470
1	1505	1471
1	1489	1472
1	1482	1473
1	1502	1474
1	1534	1475
1	1577	1476
1	1617	1477
1	1660	1478
1	1708	1479
1	1717	1440
1	1759	1441
1	1789	1442
1	1802	1443
1	1791	1444
1	1767	1445
1	1724	1446
1	1683	1447
1	1634	1448
1	1589	1449
1	1552	1450
1	1524	1451
1	1504	1452
1	1497	1453
1	1503	1454
1	1524	1455
1	1553	1456
1	1594	1457
1	1654	1458
1	1706	1459
1	1831	1500
1	1865	1501
1	1872	1502
1	1854	1503
1	1818	1504
1	1766	1505
1	1716	1506
1	1662	1507
1	1615	1508
1	1572	1509
1	1540	1510
1	1521	1511
1	1526	1512
1	1535	1513
1	1564	1514
1	1607	1515
1	1651	1516
1	1712	1517
1	1767	1518
1	1827	1519
1	1869	1520
1	1895	1521
1	1895	1522
1	1886	1523
1	1860	1524
1	1818	1525
1	1769	1526
1	1721	1527
1	1665	1528
1	1620	1529
1	1581	1530
1	1554	1531
1	1553	1532
1	1564	1533
1	1593	1534
1	1636	1535
1	1682	1536
1	1742	1537
1	1809	1538
1	1854	1539
1	1893	1540
1	1921	1541
1	1932	1542
1	1931	1543
1	1920	1544
1	1895	1545
1	1856	1546
1	1802	1547
1	1747	1548
1	1697	1549
1	1648	1550
1	1608	1551
1	1589	1552
1	1572	1553
1	1571	1554
1	1591	1555
1	1629	1556
1	1682	1557
1	1737	1558
1	1790	1559
1	1718	1600
1	1764	1601
1	1796	1602
1	1803	1603
1	1796	1604
1	1769	1605
1	1731	1606
1	1697	1607
1	1648	1608
1	1607	1609
1	1560	1610
1	1526	1611
1	1503	1612
1	1494	1613
1	1499	1614
1	1513	1615
1	1536	1616
1	1561	1617
1	1587	1618
1	1622	1619
1	1700	1580
1	1720	1581
1	1724	1582
1	1716	1583
1	1699	1584
1	1662	1585
1	1624	1586
1	1580	1587
1	1533	1588
1	1500	1589
1	1476	1590
1	1466	1591
1	1472	1592
1	1477	1593
1	1492	1594
1	1508	1595
1	1533	1596
1	1565	1597
1	1610	1598
1	1664	1599
1	1841	1560
1	1869	1561
1	1886	1562
1	1893	1563
1	1872	1564
1	1841	1565
1	1790	1566
1	1738	1567
1	1686	1568
1	1634	1569
1	1589	1570
1	1549	1571
1	1526	1572
1	1507	1573
1	1508	1574
1	1521	1575
1	1546	1576
1	1585	1577
1	1628	1578
1	1667	1579
1	1660	1620
1	1687	1621
1	1709	1622
1	1710	1623
1	1699	1624
1	1685	1625
1	1668	1626
1	1653	1627
1	1638	1628
1	1615	1629
1	1582	1630
1	1549	1631
1	1518	1632
1	1493	1633
1	1486	1634
1	1487	1635
1	1502	1636
1	1530	1637
1	1566	1638
1	1605	1639
1	1638	1640
1	1679	1641
1	1702	1642
1	1716	1643
1	1715	1644
1	1695	1645
1	1659	1646
1	1603	1647
1	1540	1648
1	1482	1649
1	1441	1650
1	1419	1651
1	1415	1652
1	1426	1653
1	1441	1654
1	1464	1655
1	1495	1656
1	1535	1657
1	1581	1658
1	1626	1659
1	2136	1680
1	2242	1681
1	2341	1682
1	2419	1683
1	2479	1684
1	2516	1685
1	2539	1686
1	2561	1687
1	2581	1688
1	2598	1689
1	2620	1690
1	2644	1691
1	2677	1692
1	2717	1693
1	2764	1694
1	2810	1695
1	2848	1696
1	2873	1697
1	2885	1698
1	2877	1699
1	2843	1700
1	2789	1701
1	2719	1702
1	2633	1703
1	2533	1704
1	2423	1705
1	2300	1706
1	2173	1707
1	2045	1708
1	1926	1709
1	1822	1710
1	1734	1711
1	1677	1712
1	1634	1713
1	1615	1714
1	1607	1715
1	1613	1716
1	1638	1717
1	1679	1718
1	1724	1719
1	1665	1660
1	1695	1661
1	1708	1662
1	1703	1663
1	1689	1664
1	1662	1665
1	1625	1666
1	1581	1667
1	1542	1668
1	1500	1669
1	1467	1670
1	1453	1671
1	1460	1672
1	1485	1673
1	1528	1674
1	1584	1675
1	1670	1676
1	1778	1677
1	1896	1678
1	2017	1679
1	1765	1720
1	1795	1721
1	1808	1722
1	1780	1723
1	1729	1724
1	1657	1725
1	1569	1726
1	1476	1727
1	1374	1728
1	1283	1729
1	1204	1730
1	1139	1731
1	1099	1732
1	1084	1733
1	1086	1734
1	1112	1735
1	1153	1736
1	1197	1737
1	1243	1738
1	1292	1739
1	1346	1740
1	1383	1741
1	1419	1742
1	1438	1743
1	1442	1744
1	1436	1745
1	1412	1746
1	1380	1747
1	1346	1748
1	1319	1749
1	1297	1750
1	1285	1751
1	1280	1752
1	1283	1753
1	1293	1754
1	1318	1755
1	1350	1756
1	1397	1757
1	1449	1758
1	1495	1759
1	1540	1760
1	1579	1761
1	1607	1762
1	1620	1763
1	1621	1764
1	1605	1765
1	1578	1766
1	1542	1767
1	1503	1768
1	1465	1769
1	1430	1770
1	1397	1771
1	1373	1772
1	1368	1773
1	1377	1774
1	1403	1775
1	1440	1776
1	1489	1777
1	1542	1778
1	1598	1779
1	1648	1780
1	1688	1781
1	1710	1782
1	1707	1783
1	1692	1784
1	1664	1785
1	1621	1786
1	1581	1787
1	1531	1788
1	1492	1789
1	1459	1790
1	1437	1791
1	1424	1792
1	1429	1793
1	1440	1794
1	1464	1795
1	1494	1796
1	1531	1797
1	1568	1798
1	1613	1799
1	1656	1800
1	1686	1801
1	1712	1802
1	1716	1803
1	1701	1804
1	1667	1805
1	1620	1806
1	1555	1807
1	1486	1808
1	1420	1809
1	1362	1810
1	1324	1811
1	1310	1812
1	1314	1813
1	1328	1814
1	1353	1815
1	1402	1816
1	1473	1817
1	1546	1818
1	1611	1819
1	1629	1840
1	1661	1841
1	1686	1842
1	1700	1843
1	1697	1844
1	1676	1845
1	1652	1846
1	1626	1847
1	1604	1848
1	1581	1849
1	1563	1850
1	1547	1851
1	1538	1852
1	1529	1853
1	1534	1854
1	1555	1855
1	1586	1856
1	1621	1857
1	1647	1858
1	1679	1859
1	1667	1820
1	1706	1821
1	1730	1822
1	1746	1823
1	1744	1824
1	1730	1825
1	1712	1826
1	1685	1827
1	1639	1828
1	1585	1829
1	1535	1830
1	1490	1831
1	1458	1832
1	1429	1833
1	1418	1834
1	1424	1835
1	1447	1836
1	1493	1837
1	1547	1838
1	1589	1839
1	1710	1860
1	1731	1861
1	1738	1862
1	1739	1863
1	1719	1864
1	1688	1865
1	1653	1866
1	1607	1867
1	1560	1868
1	1515	1869
1	1472	1870
1	1436	1871
1	1418	1872
1	1416	1873
1	1433	1874
1	1465	1875
1	1505	1876
1	1567	1877
1	1624	1878
1	1676	1879
1	1843	1900
1	1875	1901
1	1890	1902
1	1882	1903
1	1861	1904
1	1830	1905
1	1787	1906
1	1750	1907
1	1706	1908
1	1657	1909
1	1607	1910
1	1566	1911
1	1543	1912
1	1533	1913
1	1537	1914
1	1561	1915
1	1605	1916
1	1660	1917
1	1709	1918
1	1751	1919
1	1724	1880
1	1767	1881
1	1811	1882
1	1838	1883
1	1847	1884
1	1844	1885
1	1821	1886
1	1775	1887
1	1712	1888
1	1654	1889
1	1594	1890
1	1548	1891
1	1528	1892
1	1518	1893
1	1535	1894
1	1572	1895
1	1625	1896
1	1682	1897
1	1739	1898
1	1791	1899
1	1836	1940
1	1887	1941
1	1908	1942
1	1901	1943
1	1882	1944
1	1843	1945
1	1792	1946
1	1742	1947
1	1692	1948
1	1647	1949
1	1606	1950
1	1579	1951
1	1566	1952
1	1567	1953
1	1594	1954
1	1634	1955
1	1687	1956
1	1751	1957
1	1828	1958
1	1899	1959
1	1792	1920
1	1829	1921
1	1852	1922
1	1858	1923
1	1843	1924
1	1817	1925
1	1770	1926
1	1721	1927
1	1670	1928
1	1631	1929
1	1602	1930
1	1585	1931
1	1581	1932
1	1580	1933
1	1590	1934
1	1613	1935
1	1647	1936
1	1687	1937
1	1728	1938
1	1780	1939
1	1827	1980
1	1864	1981
1	1890	1982
1	1891	1983
1	1874	1984
1	1843	1985
1	1790	1986
1	1733	1987
1	1674	1988
1	1619	1989
1	1568	1990
1	1526	1991
1	1498	1992
1	1483	1993
1	1490	1994
1	1503	1995
1	1527	1996
1	1559	1997
1	1596	1998
1	1634	1999
1	1665	2000
1	1698	2001
1	1721	2002
1	1727	2003
1	1719	2004
1	1695	2005
1	1657	2006
1	1609	2007
1	1563	2008
1	1529	2009
1	1503	2010
1	1482	2011
1	1481	2012
1	1488	2013
1	1511	2014
1	1546	2015
1	1590	2016
1	1638	2017
1	1699	2018
1	1762	2019
1	1958	1960
1	2001	1961
1	2026	1962
1	2031	1963
1	2022	1964
1	1987	1965
1	1929	1966
1	1857	1967
1	1789	1968
1	1722	1969
1	1670	1970
1	1634	1971
1	1607	1972
1	1596	1973
1	1594	1974
1	1609	1975
1	1635	1976
1	1681	1977
1	1723	1978
1	1774	1979
1	1737	2040
1	1764	2041
1	1773	2042
1	1767	2043
1	1744	2044
1	1713	2045
1	1679	2046
1	1647	2047
1	1610	2048
1	1576	2049
1	1538	2050
1	1504	2051
1	1484	2052
1	1467	2053
1	1458	2054
1	1454	2055
1	1463	2056
1	1492	2057
1	1541	2058
1	1587	2059
1	1823	2020
1	1869	2021
1	1896	2022
1	1894	2023
1	1867	2024
1	1817	2025
1	1746	2026
1	1683	2027
1	1611	2028
1	1555	2029
1	1503	2030
1	1464	2031
1	1437	2032
1	1428	2033
1	1436	2034
1	1464	2035
1	1512	2036
1	1569	2037
1	1630	2038
1	1687	2039
1	1709	2080
1	1741	2081
1	1759	2082
1	1756	2083
1	1737	2084
1	1692	2085
1	1639	2086
1	1594	2087
1	1545	2088
1	1503	2089
1	1465	2090
1	1439	2091
1	1436	2092
1	1448	2093
1	1476	2094
1	1507	2095
1	1548	2096
1	1587	2097
1	1625	2098
1	1661	2099
1	1634	2060
1	1674	2061
1	1697	2062
1	1712	2063
1	1714	2064
1	1710	2065
1	1688	2066
1	1660	2067
1	1616	2068
1	1576	2069
1	1534	2070
1	1499	2071
1	1471	2072
1	1445	2073
1	1437	2074
1	1454	2075
1	1492	2076
1	1546	2077
1	1606	2078
1	1660	2079
1	1697	2100
1	1714	2101
1	1733	2102
1	1729	2103
1	1715	2104
1	1698	2105
1	1670	2106
1	1633	2107
1	1589	2108
1	1549	2109
1	1516	2110
1	1492	2111
1	1479	2112
1	1472	2113
1	1481	2114
1	1503	2115
1	1538	2116
1	1589	2117
1	1643	2118
1	1692	2119
1	1734	2120
1	1760	2121
1	1772	2122
1	1769	2123
1	1754	2124
1	1724	2125
1	1683	2126
1	1629	2127
1	1566	2128
1	1512	2129
1	1466	2130
1	1427	2131
1	1397	2132
1	1375	2133
1	1380	2134
1	1402	2135
1	1423	2136
1	1466	2137
1	1503	2138
1	1553	2139
1	1605	2140
1	1647	2141
1	1676	2142
1	1692	2143
1	1692	2144
1	1686	2145
1	1668	2146
1	1638	2147
1	1596	2148
1	1553	2149
1	1517	2150
1	1487	2151
1	1476	2152
1	1473	2153
1	1479	2154
1	1503	2155
1	1534	2156
1	1564	2157
1	1589	2158
1	1611	2159
1	1634	2160
1	1643	2161
1	1646	2162
1	1645	2163
1	1625	2164
1	1595	2165
1	1557	2166
1	1521	2167
1	1482	2168
1	1454	2169
1	1429	2170
1	1422	2171
1	1436	2172
1	1462	2173
1	1507	2174
1	1566	2175
1	1626	2176
1	1692	2177
1	1751	2178
1	1803	2179
1	1843	2180
1	1859	2181
1	1864	2182
1	1845	2183
1	1800	2184
1	1751	2185
1	1696	2186
1	1638	2187
1	1570	2188
1	1503	2189
1	1443	2190
1	1384	2191
1	1350	2192
1	1330	2193
1	1332	2194
1	1350	2195
1	1394	2196
1	1443	2197
1	1495	2198
1	1549	2199
1	1603	2200
1	1645	2201
1	1672	2202
1	1683	2203
1	1685	2204
1	1674	2205
1	1657	2206
1	1635	2207
1	1600	2208
1	1562	2209
1	1530	2210
1	1503	2211
1	1481	2212
1	1474	2213
1	1476	2214
1	1492	2215
1	1521	2216
1	1562	2217
1	1607	2218
1	1657	2219
1	1776	2240
1	1836	2241
1	1862	2242
1	1869	2243
1	1865	2244
1	1846	2245
1	1817	2246
1	1764	2247
1	1708	2248
1	1646	2249
1	1581	2250
1	1529	2251
1	1499	2252
1	1490	2253
1	1511	2254
1	1544	2255
1	1591	2256
1	1649	2257
1	1711	2258
1	1765	2259
1	1701	2220
1	1734	2221
1	1757	2222
1	1763	2223
1	1741	2224
1	1701	2225
1	1651	2226
1	1598	2227
1	1549	2228
1	1503	2229
1	1459	2230
1	1435	2231
1	1427	2232
1	1435	2233
1	1454	2234
1	1490	2235
1	1535	2236
1	1593	2237
1	1652	2238
1	1717	2239
1	1823	2260
1	1863	2261
1	1870	2262
1	1854	2263
1	1823	2264
1	1787	2265
1	1748	2266
1	1701	2267
1	1657	2268
1	1607	2269
1	1567	2270
1	1533	2271
1	1517	2272
1	1518	2273
1	1542	2274
1	1579	2275
1	1624	2276
1	1665	2277
1	1694	2278
1	1721	2279
1	1752	2280
1	1775	2281
1	1800	2282
1	1800	2283
1	1785	2284
1	1746	2285
1	1697	2286
1	1642	2287
1	1590	2288
1	1548	2289
1	1515	2290
1	1486	2291
1	1464	2292
1	1451	2293
1	1468	2294
1	1503	2295
1	1553	2296
1	1607	2297
1	1658	2298
1	1699	2299
1	1733	2300
1	1751	2301
1	1752	2302
1	1739	2303
1	1718	2304
1	1688	2305
1	1654	2306
1	1610	2307
1	1561	2308
1	1517	2309
1	1468	2310
1	1427	2311
1	1403	2312
1	1397	2313
1	1412	2314
1	1454	2315
1	1508	2316
1	1562	2317
1	1612	2318
1	1660	2319
1	1697	2320
1	1718	2321
1	1716	2322
1	1697	2323
1	1669	2324
1	1634	2325
1	1590	2326
1	1543	2327
1	1490	2328
1	1446	2329
1	1413	2330
1	1397	2331
1	1397	2332
1	1412	2333
1	1437	2334
1	1477	2335
1	1529	2336
1	1587	2337
1	1643	2338
1	1683	2339
1	1701	2340
1	1707	2341
1	1698	2342
1	1683	2343
1	1650	2344
1	1610	2345
1	1561	2346
1	1513	2347
1	1458	2348
1	1414	2349
1	1382	2350
1	1369	2351
1	1371	2352
1	1374	2353
1	1399	2354
1	1424	2355
1	1458	2356
1	1503	2357
1	1555	2358
1	1595	2359
1	1626	2380
1	1629	2381
1	1632	2382
1	1620	2383
1	1605	2384
1	1571	2385
1	1533	2386
1	1498	2387
1	1458	2388
1	1417	2389
1	1377	2390
1	1354	2391
1	1346	2392
1	1354	2393
1	1384	2394
1	1436	2395
1	1497	2396
1	1566	2397
1	1638	2398
1	1719	2399
1	1815	2400
1	1907	2401
1	2010	2402
1	2097	2403
1	2174	2404
1	2238	2405
1	2288	2406
1	2331	2407
1	2376	2408
1	2419	2409
1	2468	2410
1	2509	2411
1	2552	2412
1	2593	2413
1	2652	2414
1	2717	2415
1	2783	2416
1	2843	2417
1	2885	2418
1	2918	2419
1	1632	2360
1	1656	2361
1	1665	2362
1	1665	2363
1	1658	2364
1	1638	2365
1	1602	2366
1	1561	2367
1	1520	2368
1	1490	2369
1	1467	2370
1	1451	2371
1	1453	2372
1	1463	2373
1	1479	2374
1	1506	2375
1	1541	2376
1	1577	2377
1	1604	2378
1	1620	2379
1	1809	2440
1	1791	2441
1	1773	2442
1	1751	2443
1	1713	2444
1	1652	2445
1	1579	2446
1	1494	2447
1	1410	2448
1	1324	2449
1	1244	2450
1	1183	2451
1	1130	2452
1	1098	2453
1	1089	2454
1	1101	2455
1	1125	2456
1	1162	2457
1	1201	2458
1	1245	2459
1	2929	2420
1	2916	2421
1	2873	2422
1	2798	2423
1	2703	2424
1	2593	2425
1	2483	2426
1	2355	2427
1	2235	2428
1	2127	2429
1	2032	2430
1	1950	2431
1	1891	2432
1	1850	2433
1	1824	2434
1	1814	2435
1	1809	2436
1	1818	2437
1	1821	2438
1	1817	2439
1	1284	2460
1	1314	2461
1	1333	2462
1	1350	2463
1	1350	2464
1	1334	2465
1	1310	2466
1	1276	2467
1	1246	2468
1	1220	2469
1	1207	2470
1	1211	2471
1	1220	2472
1	1235	2473
1	1258	2474
1	1292	2475
1	1331	2476
1	1383	2477
1	1433	2478
1	1485	2479
1	1621	2500
1	1644	2501
1	1657	2502
1	1652	2503
1	1634	2504
1	1603	2505
1	1559	2506
1	1508	2507
1	1450	2508
1	1394	2509
1	1353	2510
1	1336	2511
1	1341	2512
1	1359	2513
1	1384	2514
1	1424	2515
1	1457	2516
1	1494	2517
1	1525	2518
1	1557	2519
1	1537	2480
1	1572	2481
1	1588	2482
1	1586	2483
1	1567	2484
1	1533	2485
1	1492	2486
1	1450	2487
1	1410	2488
1	1371	2489
1	1345	2490
1	1332	2491
1	1338	2492
1	1346	2493
1	1369	2494
1	1407	2495
1	1451	2496
1	1503	2497
1	1552	2498
1	1590	2499
1	1589	2520
1	1612	2521
1	1637	2522
1	1651	2523
1	1659	2524
1	1656	2525
1	1642	2526
1	1620	2527
1	1603	2528
1	1587	2529
1	1574	2530
1	1555	2531
1	1530	2532
1	1498	2533
1	1474	2534
1	1462	2535
1	1466	2536
1	1484	2537
1	1507	2538
1	1542	2539
1	1581	2540
1	1607	2541
1	1619	2542
1	1628	2543
1	1615	2544
1	1589	2545
1	1553	2546
1	1504	2547
1	1453	2548
1	1418	2549
1	1394	2550
1	1377	2551
1	1380	2552
1	1400	2553
1	1433	2554
1	1467	2555
1	1504	2556
1	1554	2557
1	1598	2558
1	1636	2559
1	1721	2580
1	1750	2581
1	1767	2582
1	1764	2583
1	1750	2584
1	1718	2585
1	1681	2586
1	1634	2587
1	1584	2588
1	1538	2589
1	1503	2590
1	1477	2591
1	1468	2592
1	1466	2593
1	1476	2594
1	1503	2595
1	1543	2596
1	1592	2597
1	1644	2598
1	1692	2599
1	1670	2560
1	1700	2561
1	1725	2562
1	1729	2563
1	1719	2564
1	1693	2565
1	1648	2566
1	1593	2567
1	1540	2568
1	1485	2569
1	1440	2570
1	1409	2571
1	1395	2572
1	1398	2573
1	1422	2574
1	1462	2575
1	1517	2576
1	1580	2577
1	1634	2578
1	1683	2579
1	1734	2600
1	1757	2601
1	1765	2602
1	1761	2603
1	1739	2604
1	1712	2605
1	1682	2606
1	1641	2607
1	1587	2608
1	1538	2609
1	1502	2610
1	1477	2611
1	1469	2612
1	1479	2613
1	1503	2614
1	1548	2615
1	1608	2616
1	1686	2617
1	1755	2618
1	1809	2619
1	1791	2640
1	1816	2641
1	1821	2642
1	1817	2643
1	1795	2644
1	1769	2645
1	1748	2646
1	1712	2647
1	1675	2648
1	1638	2649
1	1599	2650
1	1578	2651
1	1564	2652
1	1557	2653
1	1566	2654
1	1590	2655
1	1631	2656
1	1683	2657
1	1749	2658
1	1817	2659
1	1844	2620
1	1859	2621
1	1856	2622
1	1832	2623
1	1793	2624
1	1753	2625
1	1709	2626
1	1665	2627
1	1619	2628
1	1577	2629
1	1541	2630
1	1521	2631
1	1515	2632
1	1517	2633
1	1534	2634
1	1571	2635
1	1618	2636
1	1669	2637
1	1716	2638
1	1757	2639
1	1874	2660
1	1920	2661
1	1946	2662
1	1949	2663
1	1932	2664
1	1896	2665
1	1856	2666
1	1811	2667
1	1753	2668
1	1711	2669
1	1670	2670
1	1636	2671
1	1619	2672
1	1608	2673
1	1619	2674
1	1645	2675
1	1681	2676
1	1721	2677
1	1757	2678
1	1791	2679
1	1821	2680
1	1843	2681
1	1849	2682
1	1836	2683
1	1811	2684
1	1773	2685
1	1738	2686
1	1717	2687
1	1698	2688
1	1686	2689
1	1677	2690
1	1674	2691
1	1682	2692
1	1695	2693
1	1716	2694
1	1738	2695
1	1764	2696
1	1791	2697
1	1817	2698
1	1841	2699
1	1857	2700
1	1869	2701
1	1872	2702
1	1857	2703
1	1828	2704
1	1778	2705
1	1726	2706
1	1669	2707
1	1616	2708
1	1568	2709
1	1533	2710
1	1512	2711
1	1508	2712
1	1512	2713
1	1533	2714
1	1569	2715
1	1620	2716
1	1673	2717
1	1721	2718
1	1753	2719
1	1776	2720
1	1789	2721
1	1786	2722
1	1767	2723
1	1736	2724
1	1685	2725
1	1633	2726
1	1584	2727
1	1546	2728
1	1520	2729
1	1503	2730
1	1487	2731
1	1476	2732
1	1494	2733
1	1525	2734
1	1569	2735
1	1613	2736
1	1675	2737
1	1736	2738
1	1775	2739
1	1813	2740
1	1832	2741
1	1834	2742
1	1815	2743
1	1774	2744
1	1720	2745
1	1659	2746
1	1586	2747
1	1510	2748
1	1440	2749
1	1384	2750
1	1363	2751
1	1360	2752
1	1377	2753
1	1422	2754
1	1473	2755
1	1527	2756
1	1581	2757
1	1631	2758
1	1674	2759
1	1712	2760
1	1739	2761
1	1751	2762
1	1754	2763
1	1733	2764
1	1700	2765
1	1665	2766
1	1630	2767
1	1581	2768
1	1517	2769
1	1451	2770
1	1399	2771
1	1364	2772
1	1347	2773
1	1359	2774
1	1398	2775
1	1441	2776
1	1504	2777
1	1567	2778
1	1638	2779
1	1706	2780
1	1759	2781
1	1791	2782
1	1809	2783
1	1792	2784
1	1763	2785
1	1717	2786
1	1673	2787
1	1622	2788
1	1581	2789
1	1544	2790
1	1508	2791
1	1481	2792
1	1476	2793
1	1481	2794
1	1503	2795
1	1538	2796
1	1583	2797
1	1634	2798
1	1683	2799
1	1717	2800
1	1741	2801
1	1749	2802
1	1734	2803
1	1712	2804
1	1679	2805
1	1634	2806
1	1587	2807
1	1544	2808
1	1502	2809
1	1466	2810
1	1447	2811
1	1442	2812
1	1450	2813
1	1481	2814
1	1529	2815
1	1581	2816
1	1634	2817
1	1661	2818
1	1683	2819
1	1693	2820
1	1699	2821
1	1702	2822
1	1699	2823
1	1694	2824
1	1674	2825
1	1636	2826
1	1593	2827
1	1542	2828
1	1494	2829
1	1450	2830
1	1424	2831
1	1403	2832
1	1390	2833
1	1397	2834
1	1417	2835
1	1451	2836
1	1489	2837
1	1528	2838
1	1567	2839
1	1697	2860
1	1718	2861
1	1737	2862
1	1738	2863
1	1728	2864
1	1698	2865
1	1660	2866
1	1620	2867
1	1587	2868
1	1543	2869
1	1502	2870
1	1462	2871
1	1432	2872
1	1412	2873
1	1413	2874
1	1423	2875
1	1438	2876
1	1466	2877
1	1499	2878
1	1543	2879
1	1589	2880
1	1623	2881
1	1649	2882
1	1652	2883
1	1638	2884
1	1613	2885
1	1582	2886
1	1546	2887
1	1508	2888
1	1476	2889
1	1441	2890
1	1412	2891
1	1392	2892
1	1377	2893
1	1395	2894
1	1422	2895
1	1465	2896
1	1523	2897
1	1592	2898
1	1651	2899
1	1604	2840
1	1649	2841
1	1680	2842
1	1708	2843
1	1713	2844
1	1708	2845
1	1685	2846
1	1652	2847
1	1607	2848
1	1566	2849
1	1529	2850
1	1501	2851
1	1484	2852
1	1487	2853
1	1499	2854
1	1523	2855
1	1554	2856
1	1589	2857
1	1629	2858
1	1662	2859
1	1701	2900
1	1729	2901
1	1741	2902
1	1737	2903
1	1712	2904
1	1673	2905
1	1625	2906
1	1571	2907
1	1513	2908
1	1472	2909
1	1448	2910
1	1436	2911
1	1435	2912
1	1445	2913
1	1458	2914
1	1485	2915
1	1521	2916
1	1568	2917
1	1620	2918
1	1679	2919
1	1731	2920
1	1767	2921
1	1792	2922
1	1791	2923
1	1777	2924
1	1753	2925
1	1715	2926
1	1660	2927
1	1611	2928
1	1563	2929
1	1521	2930
1	1491	2931
1	1479	2932
1	1487	2933
1	1503	2934
1	1536	2935
1	1580	2936
1	1625	2937
1	1671	2938
1	1712	2939
1	1751	2940
1	1777	2941
1	1791	2942
1	1791	2943
1	1774	2944
1	1746	2945
1	1710	2946
1	1655	2947
1	1592	2948
1	1529	2949
1	1469	2950
1	1429	2951
1	1412	2952
1	1423	2953
1	1455	2954
1	1503	2955
1	1558	2956
1	1623	2957
1	1692	2958
1	1750	2959
1	1798	2960
1	1832	2961
1	1855	2962
1	1863	2963
1	1859	2964
1	1842	2965
1	1811	2966
1	1764	2967
1	1715	2968
1	1674	2969
1	1634	2970
1	1600	2971
1	1574	2972
1	1566	2973
1	1567	2974
1	1593	2975
1	1633	2976
1	1675	2977
1	1724	2978
1	1775	2979
1	1819	2980
1	1849	2981
1	1863	2982
1	1847	2983
1	1818	2984
1	1769	2985
1	1713	2986
1	1660	2987
1	1600	2988
1	1543	2989
1	1500	2990
1	1476	2991
1	1464	2992
1	1476	2993
1	1503	2994
1	1543	2995
1	1598	2996
1	1660	2997
1	1723	2998
1	1777	2999
1	1822	3000
1	1853	3001
1	1871	3002
1	1870	3003
1	1850	3004
1	1800	3005
1	1738	3006
1	1665	3007
1	1598	3008
1	1539	3009
1	1494	3010
1	1466	3011
1	1458	3012
1	1468	3013
1	1493	3014
1	1523	3015
1	1553	3016
1	1584	3017
1	1629	3018
1	1660	3019
1	1688	3020
1	1710	3021
1	1714	3022
1	1703	3023
1	1681	3024
1	1646	3025
1	1606	3026
1	1561	3027
1	1511	3028
1	1476	3029
1	1445	3030
1	1424	3031
1	1410	3032
1	1413	3033
1	1432	3034
1	1461	3035
1	1515	3036
1	1571	3037
1	1636	3038
1	1691	3039
1	1742	3040
1	1776	3041
1	1796	3042
1	1800	3043
1	1778	3044
1	1729	3045
1	1670	3046
1	1607	3047
1	1549	3048
1	1494	3049
1	1452	3050
1	1434	3051
1	1425	3052
1	1437	3053
1	1461	3054
1	1489	3055
1	1515	3056
1	1543	3057
1	1566	3058
1	1594	3059
1	1621	3060
1	1642	3061
1	1648	3062
1	1649	3063
1	1633	3064
1	1607	3065
1	1574	3066
1	1542	3067
1	1516	3068
1	1494	3069
1	1484	3070
1	1490	3071
1	1503	3072
1	1516	3073
1	1537	3074
1	1559	3075
1	1593	3076
1	1629	3077
1	1661	3078
1	1688	3079
1	1718	3080
1	1744	3081
1	1755	3082
1	1751	3083
1	1729	3084
1	1694	3085
1	1646	3086
1	1585	3087
1	1522	3088
1	1465	3089
1	1413	3090
1	1373	3091
1	1355	3092
1	1367	3093
1	1379	3094
1	1415	3095
1	1450	3096
1	1497	3097
1	1546	3098
1	1605	3099
1	1662	3100
1	1713	3101
1	1753	3102
1	1786	3103
1	1811	3104
1	1822	3105
1	1831	3106
1	1845	3107
1	1859	3108
1	1880	3109
1	1913	3110
1	1955	3111
1	2011	3112
1	2079	3113
1	2163	3114
1	2268	3115
1	2380	3116
1	2497	3117
1	2598	3118
1	2707	3119
1	2815	3120
1	2914	3121
1	2987	3122
1	3039	3123
1	3065	3124
1	3065	3125
1	3036	3126
1	2983	3127
1	2915	3128
1	2830	3129
1	2736	3130
1	2640	3131
1	2535	3132
1	2442	3133
1	2354	3134
1	2278	3135
1	2210	3136
1	2161	3137
1	2125	3138
1	2096	3139
1	2070	3140
1	2051	3141
1	2021	3142
1	1985	3143
1	1944	3144
1	1891	3145
1	1830	3146
1	1751	3147
1	1669	3148
1	1602	3149
1	1546	3150
1	1502	3151
1	1468	3152
1	1447	3153
1	1427	3154
1	1422	3155
1	1424	3156
1	1438	3157
1	1454	3158
1	1472	3159
1	1424	3180
1	1467	3181
1	1485	3182
1	1490	3183
1	1474	3184
1	1449	3185
1	1422	3186
1	1398	3187
1	1384	3188
1	1380	3189
1	1395	3190
1	1412	3191
1	1429	3192
1	1445	3193
1	1473	3194
1	1503	3195
1	1548	3196
1	1594	3197
1	1644	3198
1	1685	3199
1	1714	3200
1	1723	3201
1	1712	3202
1	1686	3203
1	1646	3204
1	1593	3205
1	1532	3206
1	1464	3207
1	1395	3208
1	1323	3209
1	1274	3210
1	1238	3211
1	1220	3212
1	1228	3213
1	1253	3214
1	1304	3215
1	1376	3216
1	1466	3217
1	1555	3218
1	1638	3219
1	1488	3160
1	1503	3161
1	1519	3162
1	1523	3163
1	1511	3164
1	1480	3165
1	1432	3166
1	1359	3167
1	1287	3168
1	1211	3169
1	1147	3170
1	1101	3171
1	1071	3172
1	1060	3173
1	1073	3174
1	1116	3175
1	1175	3176
1	1240	3177
1	1299	3178
1	1363	3179
1	1714	3220
1	1782	3221
1	1834	3222
1	1850	3223
1	1845	3224
1	1814	3225
1	1751	3226
1	1678	3227
1	1600	3228
1	1523	3229
1	1454	3230
1	1409	3231
1	1370	3232
1	1354	3233
1	1359	3234
1	1392	3235
1	1435	3236
1	1487	3237
1	1538	3238
1	1581	3239
1	1662	3260
1	1701	3261
1	1723	3262
1	1725	3263
1	1716	3264
1	1693	3265
1	1654	3266
1	1606	3267
1	1553	3268
1	1503	3269
1	1467	3270
1	1443	3271
1	1435	3272
1	1446	3273
1	1467	3274
1	1500	3275
1	1542	3276
1	1602	3277
1	1665	3278
1	1726	3279
1	1620	3240
1	1647	3241
1	1669	3242
1	1682	3243
1	1669	3244
1	1639	3245
1	1607	3246
1	1566	3247
1	1519	3248
1	1476	3249
1	1440	3250
1	1418	3251
1	1409	3252
1	1404	3253
1	1413	3254
1	1438	3255
1	1476	3256
1	1516	3257
1	1561	3258
1	1610	3259
1	1772	3280
1	1799	3281
1	1812	3282
1	1791	3283
1	1759	3284
1	1715	3285
1	1661	3286
1	1607	3287
1	1555	3288
1	1499	3289
1	1450	3290
1	1417	3291
1	1404	3292
1	1410	3293
1	1429	3294
1	1467	3295
1	1523	3296
1	1585	3297
1	1654	3298
1	1716	3299
1	1775	3300
1	1827	3301
1	1847	3302
1	1855	3303
1	1837	3304
1	1795	3305
1	1748	3306
1	1700	3307
1	1651	3308
1	1607	3309
1	1581	3310
1	1566	3311
1	1566	3312
1	1564	3313
1	1580	3314
1	1608	3315
1	1646	3316
1	1687	3317
1	1727	3318
1	1755	3319
1	1774	3320
1	1791	3321
1	1802	3322
1	1800	3323
1	1782	3324
1	1752	3325
1	1710	3326
1	1654	3327
1	1593	3328
1	1542	3329
1	1502	3330
1	1476	3331
1	1471	3332
1	1497	3333
1	1538	3334
1	1609	3335
1	1673	3336
1	1738	3337
1	1803	3338
1	1849	3339
1	1862	3360
1	1895	3361
1	1906	3362
1	1908	3363
1	1879	3364
1	1839	3365
1	1782	3366
1	1729	3367
1	1683	3368
1	1644	3369
1	1612	3370
1	1602	3371
1	1597	3372
1	1602	3373
1	1625	3374
1	1661	3375
1	1701	3376
1	1742	3377
1	1790	3378
1	1824	3379
1	1883	3340
1	1908	3341
1	1917	3342
1	1908	3343
1	1877	3344
1	1832	3345
1	1772	3346
1	1712	3347
1	1658	3348
1	1612	3349
1	1582	3350
1	1570	3351
1	1570	3352
1	1579	3353
1	1592	3354
1	1613	3355
1	1651	3356
1	1704	3357
1	1756	3358
1	1816	3359
1	1850	3380
1	1865	3381
1	1872	3382
1	1870	3383
1	1856	3384
1	1841	3385
1	1817	3386
1	1790	3387
1	1759	3388
1	1737	3389
1	1715	3390
1	1700	3391
1	1692	3392
1	1698	3393
1	1712	3394
1	1744	3395
1	1788	3396
1	1835	3397
1	1865	3398
1	1893	3399
1	1913	3400
1	1926	3401
1	1929	3402
1	1913	3403
1	1890	3404
1	1857	3405
1	1817	3406
1	1762	3407
1	1711	3408
1	1660	3409
1	1620	3410
1	1597	3411
1	1595	3412
1	1603	3413
1	1616	3414
1	1635	3415
1	1667	3416
1	1705	3417
1	1738	3418
1	1769	3419
1	1803	3420
1	1832	3421
1	1845	3422
1	1854	3423
1	1838	3424
1	1798	3425
1	1751	3426
1	1697	3427
1	1639	3428
1	1584	3429
1	1542	3430
1	1512	3431
1	1495	3432
1	1494	3433
1	1512	3434
1	1544	3435
1	1581	3436
1	1625	3437
1	1673	3438
1	1724	3439
1	1764	3440
1	1809	3441
1	1821	3442
1	1818	3443
1	1798	3444
1	1776	3445
1	1738	3446
1	1688	3447
1	1629	3448
1	1576	3449
1	1526	3450
1	1490	3451
1	1466	3452
1	1476	3453
1	1500	3454
1	1538	3455
1	1589	3456
1	1644	3457
1	1698	3458
1	1742	3459
1	1782	3460
1	1811	3461
1	1814	3462
1	1787	3463
1	1751	3464
1	1697	3465
1	1636	3466
1	1580	3467
1	1523	3468
1	1467	3469
1	1426	3470
1	1404	3471
1	1407	3472
1	1436	3473
1	1476	3474
1	1531	3475
1	1586	3476
1	1646	3477
1	1688	3478
1	1738	3479
1	1769	3480
1	1790	3481
1	1791	3482
1	1780	3483
1	1751	3484
1	1712	3485
1	1670	3486
1	1622	3487
1	1575	3488
1	1530	3489
1	1500	3490
1	1476	3491
1	1453	3492
1	1449	3493
1	1462	3494
1	1498	3495
1	1544	3496
1	1600	3497
1	1656	3498
1	1701	3499
1	1741	3500
1	1773	3501
1	1791	3502
1	1791	3503
1	1765	3504
1	1727	3505
1	1673	3506
1	1620	3507
1	1570	3508
1	1529	3509
1	1495	3510
1	1478	3511
1	1476	3512
1	1490	3513
1	1516	3514
1	1551	3515
1	1585	3516
1	1620	3517
1	1652	3518
1	1683	3519
1	1710	3520
1	1723	3521
1	1720	3522
1	1698	3523
1	1674	3524
1	1643	3525
1	1603	3526
1	1559	3527
1	1530	3528
1	1503	3529
1	1499	3530
1	1506	3531
1	1528	3532
1	1543	3533
1	1555	3534
1	1580	3535
1	1607	3536
1	1634	3537
1	1665	3538
1	1697	3539
1	1727	3540
1	1744	3541
1	1744	3542
1	1730	3543
1	1699	3544
1	1660	3545
1	1623	3546
1	1583	3547
1	1550	3548
1	1517	3549
1	1492	3550
1	1476	3551
1	1473	3552
1	1476	3553
1	1495	3554
1	1530	3555
1	1564	3556
1	1593	3557
1	1626	3558
1	1658	3559
1	1685	3560
1	1701	3561
1	1710	3562
1	1705	3563
1	1690	3564
1	1660	3565
1	1620	3566
1	1571	3567
1	1525	3568
1	1477	3569
1	1440	3570
1	1417	3571
1	1409	3572
1	1422	3573
1	1445	3574
1	1489	3575
1	1545	3576
1	1607	3577
1	1672	3578
1	1736	3579
1	1784	3580
1	1817	3581
1	1826	3582
1	1811	3583
1	1777	3584
1	1737	3585
1	1688	3586
1	1630	3587
1	1579	3588
1	1529	3589
1	1494	3590
1	1478	3591
1	1475	3592
1	1494	3593
1	1523	3594
1	1555	3595
1	1585	3596
1	1611	3597
1	1632	3598
1	1647	3599
1	1654	3600
1	1657	3601
1	1652	3602
1	1652	3603
1	1649	3604
1	1642	3605
1	1629	3606
1	1607	3607
1	1579	3608
1	1544	3609
1	1520	3610
1	1504	3611
1	1499	3612
1	1500	3613
1	1524	3614
1	1559	3615
1	1606	3616
1	1652	3617
1	1701	3618
1	1738	3619
1	1765	3620
1	1783	3621
1	1788	3622
1	1777	3623
1	1756	3624
1	1726	3625
1	1694	3626
1	1657	3627
1	1608	3628
1	1564	3629
1	1527	3630
1	1498	3631
1	1485	3632
1	1492	3633
1	1508	3634
1	1553	3635
1	1601	3636
1	1660	3637
1	1713	3638
1	1770	3639
1	1821	3640
1	1848	3641
1	1859	3642
1	1855	3643
1	1832	3644
1	1792	3645
1	1753	3646
1	1710	3647
1	1662	3648
1	1612	3649
1	1566	3650
1	1541	3651
1	1537	3652
1	1557	3653
1	1603	3654
1	1661	3655
1	1728	3656
1	1791	3657
1	1845	3658
1	1895	3659
1	1929	3660
1	1949	3661
1	1952	3662
1	1948	3663
1	1924	3664
1	1895	3665
1	1849	3666
1	1791	3667
1	1737	3668
1	1677	3669
1	1625	3670
1	1589	3671
1	1571	3672
1	1563	3673
1	1571	3674
1	1587	3675
1	1616	3676
1	1655	3677
1	1697	3678
1	1727	3679
1	1756	3680
1	1778	3681
1	1787	3682
1	1782	3683
1	1769	3684
1	1753	3685
1	1724	3686
1	1684	3687
1	1635	3688
1	1600	3689
1	1573	3690
1	1559	3691
1	1555	3692
1	1562	3693
1	1577	3694
1	1593	3695
1	1611	3696
1	1638	3697
1	1664	3698
1	1698	3699
1	1731	3700
1	1760	3701
1	1780	3702
1	1778	3703
1	1759	3704
1	1724	3705
1	1683	3706
1	1633	3707
1	1584	3708
1	1539	3709
1	1503	3710
1	1474	3711
1	1459	3712
1	1464	3713
1	1485	3714
1	1512	3715
1	1550	3716
1	1593	3717
1	1634	3718
1	1677	3719
1	1715	3720
1	1744	3721
1	1762	3722
1	1770	3723
1	1760	3724
1	1732	3725
1	1688	3726
1	1635	3727
1	1584	3728
1	1538	3729
1	1503	3730
1	1476	3731
1	1450	3732
1	1438	3733
1	1446	3734
1	1465	3735
1	1495	3736
1	1529	3737
1	1560	3738
1	1590	3739
1	1620	3740
1	1652	3741
1	1672	3742
1	1674	3743
1	1662	3744
1	1634	3745
1	1594	3746
1	1558	3747
1	1528	3748
1	1505	3749
1	1494	3750
1	1493	3751
1	1503	3752
1	1524	3753
1	1540	3754
1	1555	3755
1	1574	3756
1	1596	3757
1	1623	3758
1	1649	3759
1	1672	3760
1	1690	3761
1	1700	3762
1	1693	3763
1	1673	3764
1	1638	3765
1	1597	3766
1	1550	3767
1	1513	3768
1	1479	3769
1	1450	3770
1	1440	3771
1	1438	3772
1	1456	3773
1	1490	3774
1	1538	3775
1	1589	3776
1	1639	3777
1	1681	3778
1	1712	3779
1	1733	3780
1	1747	3781
1	1751	3782
1	1751	3783
1	1734	3784
1	1699	3785
1	1656	3786
1	1598	3787
1	1534	3788
1	1475	3789
1	1428	3790
1	1403	3791
1	1395	3792
1	1411	3793
1	1450	3794
1	1515	3795
1	1595	3796
1	1696	3797
1	1816	3798
1	1931	3799
1	2048	3800
1	2155	3801
1	2249	3802
1	2323	3803
1	2378	3804
1	2418	3805
1	2445	3806
1	2469	3807
1	2476	3808
1	2485	3809
1	2495	3810
1	2516	3811
1	2558	3812
1	2624	3813
1	2692	3814
1	2764	3815
1	2834	3816
1	2894	3817
1	2943	3818
1	2968	3819
1	2965	3820
1	2930	3821
1	2852	3822
1	2749	3823
1	2631	3824
1	2511	3825
1	2375	3826
1	2241	3827
1	2120	3828
1	2015	3829
1	1931	3830
1	1867	3831
1	1817	3832
1	1777	3833
1	1757	3834
1	1760	3835
1	1773	3836
1	1799	3837
1	1832	3838
1	1859	3839
1	1878	3840
1	1882	3841
1	1869	3842
1	1835	3843
1	1775	3844
1	1699	3845
1	1620	3846
1	1529	3847
1	1443	3848
1	1361	3849
1	1291	3850
1	1228	3851
1	1183	3852
1	1152	3853
1	1136	3854
1	1132	3855
1	1137	3856
1	1161	3857
1	1189	3858
1	1232	3859
1	1281	3860
1	1325	3861
1	1363	3862
1	1384	3863
1	1395	3864
1	1382	3865
1	1363	3866
1	1338	3867
1	1310	3868
1	1284	3869
1	1267	3870
1	1268	3871
1	1282	3872
1	1312	3873
1	1350	3874
1	1402	3875
1	1458	3876
1	1516	3877
1	1564	3878
1	1598	3879
1	1621	3880
1	1629	3881
1	1618	3882
1	1592	3883
1	1561	3884
1	1529	3885
1	1489	3886
1	1445	3887
1	1402	3888
1	1354	3889
1	1319	3890
1	1296	3891
1	1291	3892
1	1319	3893
1	1358	3894
1	1416	3895
1	1477	3896
1	1542	3897
1	1598	3898
1	1652	3899
1	1697	3900
1	1726	3901
1	1737	3902
1	1738	3903
1	1712	3904
1	1675	3905
1	1631	3906
1	1581	3907
1	1529	3908
1	1490	3909
1	1459	3910
1	1441	3911
1	1437	3912
1	1436	3913
1	1443	3914
1	1463	3915
1	1498	3916
1	1544	3917
1	1602	3918
1	1644	3919
1	1683	3940
1	1692	3941
1	1697	3942
1	1692	3943
1	1679	3944
1	1656	3945
1	1620	3946
1	1573	3947
1	1527	3948
1	1477	3949
1	1439	3950
1	1417	3951
1	1400	3952
1	1403	3953
1	1423	3954
1	1451	3955
1	1498	3956
1	1545	3957
1	1590	3958
1	1633	3959
1	1680	3920
1	1699	3921
1	1707	3922
1	1699	3923
1	1680	3924
1	1652	3925
1	1620	3926
1	1585	3927
1	1543	3928
1	1505	3929
1	1474	3930
1	1454	3931
1	1453	3932
1	1467	3933
1	1476	3934
1	1503	3935
1	1536	3936
1	1578	3937
1	1613	3938
1	1656	3939
1	1669	3960
1	1700	3961
1	1722	3962
1	1738	3963
1	1728	3964
1	1701	3965
1	1665	3966
1	1629	3967
1	1589	3968
1	1555	3969
1	1529	3970
1	1515	3971
1	1520	3972
1	1540	3973
1	1572	3974
1	1607	3975
1	1645	3976
1	1683	3977
1	1720	3978
1	1746	3979
1	1764	3980
1	1767	3981
1	1767	3982
1	1757	3983
1	1737	3984
1	1706	3985
1	1669	3986
1	1625	3987
1	1567	3988
1	1517	3989
1	1476	3990
1	1456	3991
1	1459	3992
1	1487	3993
1	1526	3994
1	1577	3995
1	1639	3996
1	1711	3997
1	1779	3998
1	1845	3999
1	1895	4000
1	1919	4001
1	1926	4002
1	1914	4003
1	1881	4004
1	1834	4005
1	1769	4006
1	1705	4006
1	1644	4008
1	1581	4009
1	1533	4010
1	1509	4011
1	1503	4012
1	1519	4013
1	1546	4014
1	1581	4014
1	1623	4016
1	1665	4017
1	1707	4018
1	1742	4019
1	1775	4020
1	1798	4021
1	1817	4022
1	1830	4022
1	1819	4024
1	1795	4025
1	1751	4026
1	1693	4027
1	1638	4028
1	1590	4029
1	1555	4030
1	1538	4030
1	1541	4032
1	1553	4033
1	1577	4034
1	1612	4035
1	1657	4036
1	1711	4037
1	1767	4038
1	1827	4038
1	1872	4040
1	1916	4041
1	1944	4042
1	1949	4043
1	1940	4044
1	1911	4045
1	1875	4046
1	1833	4046
1	1765	4048
1	1708	4049
1	1658	4050
1	1617	4051
1	1590	4052
1	1589	4053
1	1597	4054
1	1623	4054
1	1659	4056
1	1693	4057
1	1727	4058
1	1764	4059
1	1852	4080
1	1868	4081
1	1870	4082
1	1869	4083
1	1852	4084
1	1828	4085
1	1795	4086
1	1764	4086
1	1728	4088
1	1699	4089
1	1669	4090
1	1645	4091
1	1622	4092
1	1612	4093
1	1613	4094
1	1629	4094
1	1660	4096
1	1697	4097
1	1739	4098
1	1772	4099
1	1801	4060
1	1832	4061
1	1844	4062
1	1844	4062
1	1829	4064
1	1801	4065
1	1764	4066
1	1723	4067
1	1679	4068
1	1634	4069
1	1602	4070
1	1586	4070
1	1584	4072
1	1592	4073
1	1611	4074
1	1643	4075
1	1685	4076
1	1736	4077
1	1777	4078
1	1818	4078
1	1796	4100
1	1817	4101
1	1818	4102
1	1813	4103
1	1791	4104
1	1766	4105
1	1728	4106
1	1678	4107
1	1611	4108
1	1554	4109
1	1502	4110
1	1463	4111
1	1446	4112
1	1454	4113
1	1481	4114
1	1523	4115
1	1574	4116
1	1621	4117
1	1665	4118
1	1701	4119
1	1724	4120
1	1734	4121
1	1737	4122
1	1729	4123
1	1712	4124
1	1680	4125
1	1635	4126
1	1587	4127
1	1542	4128
1	1491	4129
1	1447	4130
1	1420	4131
1	1407	4132
1	1408	4133
1	1428	4134
1	1471	4135
1	1517	4136
1	1569	4137
1	1616	4138
1	1660	4139
1	1695	4140
1	1716	4141
1	1726	4142
1	1719	4143
1	1693	4144
1	1660	4145
1	1629	4146
1	1592	4147
1	1555	4148
1	1525	4149
1	1503	4150
1	1490	4151
1	1482	4152
1	1476	4153
1	1482	4154
1	1503	4155
1	1529	4156
1	1564	4157
1	1597	4158
1	1623	4159
1	1639	4160
1	1647	4161
1	1654	4162
1	1648	4163
1	1632	4164
1	1605	4165
1	1570	4166
1	1527	4167
1	1473	4168
1	1427	4169
1	1391	4170
1	1371	4171
1	1372	4172
1	1408	4173
1	1450	4174
1	1503	4175
1	1560	4176
1	1616	4177
1	1661	4178
1	1700	4179
1	1724	4180
1	1738	4181
1	1740	4182
1	1720	4183
1	1686	4184
1	1641	4185
1	1590	4186
1	1539	4187
1	1493	4188
1	1453	4189
1	1424	4190
1	1406	4191
1	1400	4192
1	1407	4193
1	1424	4194
1	1460	4195
1	1505	4196
1	1556	4197
1	1607	4198
1	1647	4199
1	1675	4200
1	1687	4201
1	1687	4202
1	1683	4203
1	1661	4204
1	1634	4205
1	1599	4206
1	1572	4207
1	1551	4208
1	1534	4209
1	1517	4210
1	1503	4211
1	1497	4212
1	1493	4213
1	1507	4214
1	1535	4215
1	1567	4216
1	1602	4217
1	1643	4218
1	1683	4219
1	1718	4220
1	1746	4221
1	1752	4222
1	1741	4223
1	1716	4224
1	1680	4225
1	1636	4226
1	1589	4227
1	1537	4228
1	1490	4229
1	1450	4230
1	1432	4231
1	1431	4232
1	1452	4233
1	1472	4234
1	1503	4235
1	1532	4236
1	1560	4237
1	1603	4238
1	1635	4239
1	1672	4240
1	1690	4241
1	1690	4242
1	1676	4243
1	1651	4244
1	1607	4245
1	1555	4246
1	1512	4247
1	1476	4248
1	1437	4249
1	1407	4250
1	1398	4251
1	1398	4252
1	1422	4253
1	1458	4254
1	1512	4255
1	1570	4256
1	1634	4257
1	1686	4258
1	1729	4259
1	1687	4280
1	1701	4281
1	1704	4282
1	1691	4283
1	1663	4284
1	1626	4285
1	1582	4286
1	1542	4287
1	1504	4288
1	1482	4289
1	1472	4290
1	1474	4291
1	1476	4292
1	1482	4293
1	1492	4294
1	1515	4295
1	1544	4296
1	1581	4297
1	1618	4298
1	1655	4299
1	1755	4260
1	1764	4261
1	1760	4262
1	1747	4263
1	1723	4264
1	1693	4265
1	1660	4266
1	1631	4267
1	1600	4268
1	1567	4269
1	1541	4270
1	1523	4271
1	1512	4272
1	1505	4273
1	1512	4274
1	1533	4275
1	1557	4276
1	1589	4277
1	1631	4278
1	1661	4279
1	1688	4300
1	1712	4301
1	1717	4302
1	1708	4303
1	1686	4304
1	1661	4305
1	1634	4306
1	1602	4307
1	1574	4308
1	1548	4309
1	1523	4310
1	1507	4311
1	1503	4312
1	1521	4313
1	1547	4314
1	1582	4315
1	1625	4316
1	1672	4317
1	1711	4318
1	1751	4319
1	1782	4320
1	1807	4321
1	1811	4322
1	1800	4323
1	1770	4324
1	1738	4325
1	1703	4326
1	1665	4327
1	1635	4328
1	1613	4329
1	1602	4330
1	1598	4331
1	1604	4332
1	1610	4333
1	1633	4334
1	1661	4335
1	1703	4336
1	1749	4337
1	1792	4338
1	1837	4339
1	1739	4360
1	1752	4361
1	1757	4362
1	1751	4363
1	1733	4364
1	1706	4365
1	1675	4366
1	1638	4367
1	1611	4368
1	1589	4369
1	1570	4370
1	1555	4371
1	1544	4372
1	1550	4373
1	1567	4374
1	1596	4375
1	1638	4376
1	1691	4377
1	1737	4378
1	1777	4379
1	1867	4340
1	1890	4341
1	1890	4342
1	1877	4343
1	1855	4344
1	1818	4345
1	1764	4346
1	1712	4347
1	1653	4348
1	1603	4349
1	1557	4350
1	1526	4351
1	1503	4352
1	1503	4353
1	1514	4354
1	1541	4355
1	1581	4356
1	1626	4357
1	1668	4358
1	1712	4359
1	1778	4400
1	1790	4401
1	1778	4402
1	1748	4403
1	1700	4404
1	1648	4405
1	1599	4406
1	1555	4407
1	1507	4408
1	1475	4409
1	1450	4410
1	1436	4411
1	1432	4412
1	1445	4413
1	1461	4414
1	1490	4415
1	1529	4416
1	1572	4417
1	1605	4418
1	1621	4419
1	1803	4400
1	1817	4401
1	1803	4402
1	1783	4403
1	1740	4404
1	1692	4405
1	1644	4406
1	1590	4407
1	1533	4408
1	1481	4409
1	1446	4410
1	1429	4411
1	1431	4412
1	1448	4413
1	1485	4414
1	1541	4415
1	1605	4416
1	1664	4417
1	1719	4418
1	1756	4419
1	1626	4420
1	1616	4421
1	1603	4422
1	1569	4423
1	1533	4424
1	1503	4425
1	1479	4426
1	1459	4427
1	1446	4428
1	1424	4429
1	1400	4430
1	1381	4431
1	1372	4432
1	1374	4433
1	1405	4434
1	1447	4435
1	1498	4436
1	1551	4437
1	1605	4438
1	1652	4439
1	1616	4460
1	1660	4461
1	1694	4462
1	1710	4463
1	1703	4464
1	1678	4465
1	1634	4466
1	1581	4467
1	1513	4468
1	1451	4469
1	1400	4470
1	1357	4471
1	1337	4472
1	1341	4473
1	1357	4474
1	1395	4475
1	1441	4476
1	1501	4477
1	1571	4478
1	1647	4479
1	1692	4440
1	1721	4441
1	1730	4442
1	1724	4443
1	1698	4444
1	1660	4445
1	1619	4446
1	1569	4447
1	1518	4448
1	1474	4449
1	1437	4450
1	1422	4451
1	1418	4452
1	1422	4453
1	1429	4454
1	1440	4455
1	1460	4456
1	1489	4457
1	1529	4458
1	1571	4459
1	1725	4480
1	1792	4481
1	1847	4482
1	1871	4483
1	1893	4484
1	1904	4485
1	1905	4486
1	1887	4487
1	1873	4488
1	1865	4489
1	1873	4490
1	1906	4491
1	1952	4492
1	2016	4493
1	2105	4494
1	2210	4495
1	2328	4496
1	2449	4497
1	2555	4498
1	2662	4499
1	2764	4500
1	2853	4501
1	2923	4502
1	2967	4503
1	2983	4504
1	2974	4505
1	2953	4506
1	2921	4507
1	2875	4508
1	2801	4509
1	2711	4510
1	2607	4511
1	2513	4512
1	2413	4513
1	2326	4514
1	2260	4515
1	2210	4516
1	2170	4517
1	2152	4518
1	2129	4519
1	2107	4520
1	2088	4521
1	2066	4522
1	2039	4523
1	2001	4524
1	1953	4525
1	1895	4526
1	1841	4527
1	1777	4528
1	1727	4529
1	1686	4530
1	1652	4531
1	1626	4532
1	1611	4533
1	1595	4534
1	1595	4535
1	1581	4536
1	1574	4537
1	1559	4538
1	1545	4539
1	1526	4540
1	1502	4541
1	1470	4542
1	1426	4543
1	1370	4544
1	1305	4545
1	1241	4546
1	1186	4547
1	1139	4548
1	1107	4549
1	1090	4550
1	1101	4551
1	1127	4552
1	1172	4553
1	1233	4554
1	1303	4555
1	1380	4556
1	1454	4557
1	1511	4558
1	1557	4559
1	1593	4560
1	1610	4561
1	1611	4562
1	1599	4563
1	1559	4564
1	1507	4565
1	1449	4566
1	1398	4567
1	1359	4568
1	1341	4569
1	1331	4570
1	1325	4571
1	1329	4572
1	1341	4573
1	1373	4574
1	1424	4575
1	1472	4576
1	1516	4577
1	1562	4578
1	1593	4579
1	1616	4580
1	1631	4581
1	1631	4582
1	1613	4583
1	1584	4584
1	1554	4585
1	1516	4586
1	1476	4587
1	1433	4588
1	1407	4589
1	1397	4590
1	1396	4591
1	1404	4592
1	1431	4593
1	1474	4594
1	1515	4595
1	1556	4596
1	1598	4597
1	1636	4598
1	1664	4599
1	1678	4600
1	1673	4601
1	1651	4602
1	1607	4603
1	1559	4604
1	1517	4605
1	1476	4606
1	1448	4607
1	1424	4608
1	1395	4609
1	1362	4610
1	1346	4611
1	1345	4612
1	1353	4613
1	1374	4614
1	1417	4615
1	1453	4616
1	1492	4617
1	1528	4618
1	1570	4619
1	1608	4620
1	1641	4621
1	1660	4622
1	1673	4623
1	1665	4624
1	1649	4625
1	1629	4626
1	1607	4627
1	1593	4628
1	1581	4629
1	1575	4630
1	1580	4631
1	1590	4632
1	1607	4633
1	1634	4634
1	1654	4635
1	1665	4636
1	1674	4637
1	1678	4638
1	1670	4639
1	1660	4640
1	1654	4641
1	1634	4642
1	1607	4643
1	1582	4644
1	1564	4645
1	1548	4646
1	1530	4647
1	1508	4648
1	1494	4649
1	1484	4650
1	1480	4651
1	1492	4652
1	1528	4653
1	1570	4654
1	1620	4655
1	1672	4656
1	1715	4657
1	1743	4658
1	1764	4659
1	1766	4660
1	1763	4661
1	1751	4662
1	1729	4663
1	1700	4664
1	1664	4665
1	1625	4666
1	1581	4667
1	1540	4668
1	1502	4669
1	1474	4670
1	1458	4671
1	1455	4672
1	1475	4673
1	1503	4674
1	1543	4675
1	1589	4676
1	1646	4677
1	1708	4678
1	1775	4679
1	1834	4680
1	1873	4681
1	1895	4682
1	1895	4683
1	1869	4684
1	1825	4685
1	1764	4686
1	1706	4687
1	1639	4688
1	1579	4689
1	1521	4690
1	1482	4691
1	1458	4692
1	1450	4693
1	1476	4694
1	1530	4695
1	1600	4696
1	1675	4697
1	1750	4698
1	1820	4699
1	1875	4700
1	1919	4701
1	1936	4702
1	1932	4703
1	1908	4704
1	1878	4705
1	1843	4706
1	1796	4707
1	1742	4708
1	1694	4709
1	1656	4710
1	1634	4711
1	1625	4712
1	1634	4713
1	1652	4714
1	1688	4715
1	1734	4716
1	1769	4717
1	1799	4718
1	1827	4719
1	1853	4720
1	1871	4721
1	1881	4722
1	1857	4723
1	1823	4724
1	1769	4725
1	1712	4726
1	1652	4727
1	1607	4728
1	1566	4729
1	1529	4730
1	1502	4731
1	1490	4732
1	1503	4733
1	1544	4734
1	1603	4735
1	1670	4736
1	1738	4737
1	1796	4738
1	1851	4739
1	1892	4740
1	1917	4741
1	1924	4742
1	1914	4743
1	1884	4744
1	1845	4745
1	1800	4746
1	1749	4747
1	1698	4748
1	1657	4749
1	1623	4750
1	1598	4751
1	1580	4752
1	1566	4753
1	1571	4754
1	1592	4755
1	1631	4756
1	1672	4757
1	1720	4758
1	1759	4759
1	1791	4760
1	1827	4761
1	1843	4762
1	1843	4763
1	1826	4764
1	1791	4765
1	1749	4766
1	1707	4767
1	1662	4768
1	1634	4769
1	1621	4770
1	1625	4771
1	1649	4772
1	1698	4773
1	1751	4774
1	1801	4775
1	1852	4776
1	1883	4777
1	1895	4778
1	1888	4779
1	1866	4780
1	1836	4781
1	1802	4782
1	1760	4783
1	1721	4784
1	1682	4785
1	1634	4786
1	1583	4787
1	1536	4788
1	1494	4789
1	1471	4790
1	1468	4791
1	1477	4792
1	1503	4793
1	1547	4794
1	1608	4795
1	1679	4796
1	1743	4797
1	1801	4798
1	1856	4799
1	1888	4800
1	1900	4801
1	1897	4802
1	1883	4803
1	1852	4804
1	1809	4805
1	1755	4806
1	1699	4807
1	1639	4808
1	1590	4809
1	1549	4810
1	1523	4811
1	1508	4812
1	1508	4813
1	1526	4814
1	1554	4815
1	1590	4816
1	1631	4817
1	1674	4818
1	1708	4819
1	1727	4820
1	1731	4821
1	1715	4822
1	1697	4823
1	1674	4824
1	1652	4825
1	1628	4826
1	1594	4827
1	1566	4828
1	1552	4829
1	1544	4830
1	1552	4831
1	1564	4832
1	1593	4833
1	1609	4834
1	1644	4835
1	1683	4836
1	1711	4837
1	1739	4838
1	1762	4839
1	1769	4840
1	1762	4841
1	1738	4842
1	1701	4843
1	1660	4844
1	1621	4845
1	1581	4846
1	1547	4847
1	1518	4848
1	1489	4849
1	1466	4850
1	1458	4851
1	1471	4852
1	1485	4853
1	1510	4854
1	1541	4855
1	1577	4856
1	1615	4857
1	1647	4858
1	1675	4859
1	1705	4880
1	1728	4881
1	1740	4882
1	1738	4883
1	1715	4884
1	1686	4885
1	1657	4886
1	1621	4887
1	1580	4888
1	1543	4889
1	1519	4890
1	1503	4891
1	1490	4892
1	1490	4893
1	1494	4894
1	1511	4895
1	1541	4896
1	1570	4897
1	1606	4898
1	1642	4899
1	1698	4860
1	1712	4861
1	1715	4862
1	1711	4863
1	1686	4864
1	1649	4865
1	1607	4866
1	1574	4867
1	1542	4868
1	1520	4869
1	1503	4870
1	1490	4871
1	1484	4872
1	1481	4873
1	1499	4874
1	1526	4875
1	1555	4876
1	1598	4877
1	1642	4878
1	1676	4879
1	1674	4900
1	1695	4901
1	1697	4902
1	1673	4903
1	1647	4904
1	1616	4905
1	1581	4906
1	1544	4907
1	1513	4908
1	1481	4909
1	1456	4910
1	1449	4911
1	1443	4912
1	1451	4913
1	1471	4914
1	1494	4915
1	1526	4916
1	1554	4917
1	1581	4918
1	1615	4919
1	1743	4940
1	1764	4941
1	1762	4942
1	1749	4943
1	1721	4944
1	1676	4945
1	1623	4946
1	1577	4947
1	1535	4948
1	1503	4949
1	1478	4950
1	1471	4951
1	1476	4952
1	1503	4953
1	1531	4954
1	1574	4955
1	1607	4956
1	1641	4957
1	1669	4958
1	1687	4959
1	1636	4920
1	1647	4921
1	1647	4922
1	1646	4923
1	1629	4924
1	1602	4925
1	1566	4926
1	1529	4927
1	1497	4928
1	1467	4929
1	1458	4930
1	1469	4931
1	1487	4932
1	1492	4933
1	1508	4934
1	1536	4935
1	1574	4936
1	1623	4937
1	1678	4938
1	1720	4939
1	1693	4960
1	1686	4961
1	1672	4962
1	1645	4963
1	1623	4964
1	1593	4965
1	1557	4966
1	1524	4967
1	1502	4968
1	1480	4969
1	1474	4970
1	1478	4971
1	1495	4972
1	1527	4973
1	1566	4974
1	1616	4975
1	1669	4976
1	1724	4977
1	1763	4978
1	1796	4979
1	1819	4980
1	1827	4981
1	1826	4982
1	1817	4983
1	1792	4984
1	1764	4985
1	1727	4986
1	1686	4987
1	1655	4988
1	1629	4989
1	1607	4990
1	1601	4991
1	1602	4992
1	1607	4993
1	1622	4994
1	1645	4995
1	1674	4996
1	1712	4997
1	1763	4998
1	1801	4999
1	1838	5000
1	1856	5001
1	1861	5002
1	1849	5003
1	1824	5004
1	1788	5005
1	1751	5006
1	1712	5007
1	1664	5008
1	1625	5009
1	1600	5010
1	1593	5011
1	1598	5012
1	1620	5013
1	1652	5014
1	1699	5015
1	1763	5016
1	1837	5017
1	1897	5018
1	1946	5019
1	1962	5020
1	1952	5021
1	1931	5022
1	1890	5023
1	1853	5024
1	1818	5025
1	1764	5026
1	1713	5027
1	1677	5028
1	1634	5029
1	1603	5030
1	1581	5031
1	1580	5032
1	1589	5033
1	1616	5034
1	1660	5035
1	1706	5036
1	1751	5037
1	1791	5038
1	1836	5039
1	1869	5040
1	1895	5041
1	1916	5042
1	1925	5043
1	1914	5044
1	1892	5045
1	1857	5046
1	1829	5047
1	1791	5048
1	1751	5049
1	1713	5050
1	1685	5051
1	1664	5052
1	1659	5053
1	1675	5054
1	1703	5055
1	1733	5056
1	1765	5057
1	1808	5058
1	1841	5059
1	1856	5060
1	1856	5061
1	1843	5062
1	1812	5063
1	1774	5064
1	1737	5065
1	1692	5066
1	1651	5067
1	1608	5068
1	1581	5069
1	1561	5070
1	1548	5071
1	1550	5072
1	1566	5073
1	1588	5074
1	1620	5075
1	1660	5076
1	1708	5077
1	1751	5078
1	1793	5079
1	1823	5100
1	1848	5101
1	1848	5102
1	1841	5103
1	1796	5104
1	1751	5105
1	1698	5106
1	1641	5107
1	1580	5108
1	1526	5109
1	1487	5110
1	1463	5111
1	1458	5112
1	1465	5113
1	1492	5114
1	1530	5115
1	1580	5116
1	1628	5117
1	1677	5118
1	1719	5119
1	1841	5080
1	1869	5081
1	1885	5082
1	1869	5083
1	1844	5084
1	1812	5085
1	1764	5086
1	1709	5087
1	1657	5088
1	1606	5089
1	1571	5090
1	1553	5091
1	1551	5092
1	1566	5093
1	1590	5094
1	1620	5095
1	1659	5096
1	1699	5097
1	1737	5098
1	1779	5099
1	1757	5120
1	1787	5121
1	1799	5122
1	1789	5123
1	1759	5124
1	1724	5125
1	1686	5126
1	1651	5127
1	1605	5128
1	1557	5129
1	1520	5130
1	1495	5131
1	1495	5132
1	1519	5133
1	1550	5134
1	1602	5135
1	1656	5136
1	1701	5137
1	1749	5138
1	1790	5139
1	1817	5140
1	1831	5141
1	1826	5142
1	1802	5143
1	1769	5144
1	1723	5145
1	1671	5146
1	1613	5147
1	1561	5148
1	1515	5149
1	1481	5150
1	1471	5151
1	1484	5152
1	1500	5153
1	1529	5154
1	1561	5155
1	1602	5156
1	1644	5157
1	1675	5158
1	1709	5159
1	1731	5160
1	1738	5161
1	1731	5162
1	1709	5163
1	1664	5164
1	1620	5165
1	1583	5166
1	1555	5167
1	1533	5168
1	1529	5169
1	1536	5170
1	1565	5171
1	1616	5172
1	1680	5173
1	1759	5174
1	1850	5175
1	1948	5176
1	2061	5177
1	2183	5178
1	2306	5179
1	2407	5180
1	2492	5181
1	2543	5182
1	2574	5183
1	2589	5184
1	2599	5185
1	2605	5186
1	2612	5187
1	2623	5188
1	2644	5189
1	2670	5190
1	2709	5191
1	2763	5192
1	2832	5193
1	2900	5194
1	2968	5195
1	3025	5196
1	3075	5197
1	3098	5198
1	3092	5199
1	3051	5200
1	2980	5201
1	2889	5202
1	2786	5203
1	2673	5204
1	2558	5205
1	2444	5206
1	2323	5207
1	2211	5208
1	2113	5209
1	2029	5210
1	1965	5211
1	1926	5212
1	1910	5213
1	1916	5214
1	1930	5215
1	1949	5216
1	1965	5217
1	1961	5218
1	1951	5219
1	1922	5220
1	1874	5221
1	1818	5222
1	1738	5223
1	1647	5224
1	1550	5225
1	1450	5226
1	1359	5227
1	1283	5228
1	1220	5229
1	1176	5230
1	1154	5231
1	1152	5232
1	1167	5233
1	1206	5234
1	1260	5235
1	1325	5236
1	1398	5237
1	1467	5238
1	1529	5239
1	1583	5240
1	1621	5241
1	1636	5242
1	1630	5243
1	1613	5244
1	1585	5245
1	1541	5246
1	1492	5247
1	1445	5248
1	1405	5249
1	1372	5250
1	1353	5251
1	1346	5252
1	1358	5253
1	1377	5254
1	1412	5255
1	1448	5256
1	1482	5257
1	1518	5258
1	1555	5259
1	1584	5260
1	1607	5261
1	1611	5262
1	1600	5263
1	1584	5264
1	1562	5265
1	1535	5266
1	1507	5267
1	1488	5268
1	1463	5269
1	1450	5270
1	1449	5271
1	1454	5272
1	1476	5273
1	1511	5274
1	1555	5275
1	1607	5276
1	1661	5277
1	1704	5278
1	1734	5279
1	1744	5280
1	1738	5281
1	1721	5282
1	1698	5283
1	1660	5284
1	1612	5285
1	1559	5286
1	1508	5287
1	1460	5288
1	1413	5289
1	1368	5290
1	1341	5291
1	1336	5292
1	1343	5293
1	1373	5294
1	1423	5295
1	1477	5296
1	1544	5297
1	1620	5298
1	1682	5299
1	1730	5300
1	1759	5301
1	1769	5302
1	1769	5303
1	1751	5304
1	1712	5305
1	1657	5306
1	1594	5307
1	1529	5308
1	1483	5309
1	1457	5310
1	1449	5311
1	1450	5312
1	1467	5313
1	1486	5314
1	1512	5315
1	1537	5316
1	1560	5317
1	1590	5318
1	1620	5319
1	1643	5320
1	1660	5321
1	1662	5322
1	1652	5323
1	1634	5324
1	1612	5325
1	1587	5326
1	1561	5327
1	1547	5328
1	1529	5329
1	1519	5330
1	1507	5331
1	1503	5332
1	1516	5333
1	1541	5334
1	1572	5335
1	1612	5336
1	1661	5337
1	1714	5338
1	1757	5339
1	1792	5340
1	1816	5341
1	1817	5342
1	1801	5343
1	1769	5344
1	1725	5345
1	1665	5346
1	1615	5347
1	1561	5348
1	1515	5349
1	1478	5350
1	1450	5351
1	1436	5352
1	1430	5353
1	1450	5354
1	1501	5355
1	1567	5356
1	1643	5357
1	1712	5358
1	1760	5359
1	1790	5360
1	1808	5361
1	1802	5362
1	1790	5363
1	1769	5364
1	1747	5365
1	1708	5366
1	1660	5367
1	1605	5368
1	1559	5369
1	1527	5370
1	1503	5371
1	1494	5372
1	1513	5373
1	1547	5374
1	1594	5375
1	1650	5376
1	1706	5377
1	1753	5378
1	1791	5379
1	1823	5380
1	1843	5381
1	1854	5382
1	1846	5383
1	1832	5384
1	1800	5385
1	1767	5386
1	1736	5387
1	1700	5388
1	1656	5389
1	1607	5390
1	1575	5391
1	1556	5392
1	1557	5393
1	1581	5394
1	1623	5395
1	1675	5396
1	1731	5397
1	1777	5398
1	1824	5399
1	1860	5400
1	1883	5401
1	1896	5402
1	1895	5403
1	1868	5404
1	1831	5405
1	1787	5406
1	1743	5407
1	1706	5408
1	1664	5409
1	1634	5410
1	1618	5411
1	1616	5412
1	1625	5413
1	1654	5414
1	1689	5415
1	1734	5416
1	1775	5417
1	1826	5418
1	1870	5419
1	1916	5420
1	1952	5421
1	1974	5422
1	1975	5423
1	1957	5424
1	1911	5425
1	1851	5426
1	1787	5427
1	1719	5428
1	1658	5429
1	1603	5430
1	1563	5431
1	1541	5432
1	1544	5433
1	1553	5434
1	1582	5435
1	1631	5436
1	1674	5437
1	1724	5438
1	1776	5439
1	1821	5440
1	1855	5441
1	1875	5442
1	1882	5443
1	1872	5444
1	1856	5445
1	1834	5446
1	1812	5447
1	1780	5448
1	1750	5449
1	1724	5450
1	1707	5451
1	1697	5452
1	1692	5453
1	1703	5454
1	1738	5455
1	1791	5456
1	1856	5457
1	1900	5458
1	1940	5459
1	1960	5460
1	1962	5461
1	1949	5462
1	1934	5463
1	1907	5464
1	1884	5465
1	1857	5466
1	1828	5467
1	1788	5468
1	1755	5469
1	1730	5470
1	1715	5471
1	1715	5472
1	1724	5473
1	1743	5474
1	1773	5475
1	1815	5476
1	1854	5477
1	1897	5478
1	1933	5479
1	1957	5480
1	1965	5481
1	1952	5482
1	1922	5483
1	1880	5484
1	1822	5485
1	1760	5486
1	1701	5487
1	1649	5488
1	1607	5489
1	1569	5490
1	1546	5491
1	1543	5492
1	1573	5493
1	1613	5494
1	1669	5495
1	1734	5496
1	1800	5497
1	1874	5498
1	1937	5499
1	1985	5500
1	2012	5501
1	2017	5502
1	1989	5503
1	1944	5504
1	1878	5505
1	1800	5506
1	1728	5507
1	1663	5508
1	1604	5509
1	1555	5510
1	1523	5511
1	1504	5512
1	1504	5513
1	1528	5514
1	1566	5515
1	1620	5516
1	1674	5517
1	1723	5518
1	1775	5519
1	1827	5520
1	1860	5521
1	1882	5522
1	1893	5523
1	1880	5524
1	1856	5525
1	1817	5526
1	1773	5527
1	1728	5528
1	1685	5529
1	1652	5530
1	1629	5531
1	1608	5532
1	1596	5533
1	1594	5534
1	1607	5535
1	1628	5536
1	1659	5537
1	1692	5538
1	1730	5539
1	1759	5540
1	1791	5541
1	1817	5542
1	1817	5543
1	1799	5544
1	1767	5545
1	1736	5546
1	1705	5547
1	1674	5548
1	1638	5549
1	1602	5550
1	1571	5551
1	1568	5552
1	1573	5553
1	1590	5554
1	1624	5555
1	1668	5556
1	1712	5557
1	1756	5558
1	1791	5559
1	1822	5560
1	1835	5561
1	1829	5562
1	1790	5563
1	1741	5564
1	1695	5565
1	1655	5566
1	1628	5567
1	1610	5568
1	1594	5569
1	1581	5570
1	1575	5571
1	1584	5572
1	1616	5573
1	1658	5574
1	1688	5575
1	1724	5576
1	1751	5577
1	1764	5578
1	1777	5579
1	1761	5600
1	1782	5601
1	1799	5602
1	1811	5603
1	1800	5604
1	1769	5605
1	1726	5606
1	1674	5607
1	1610	5608
1	1547	5609
1	1490	5610
1	1443	5611
1	1416	5612
1	1408	5613
1	1411	5614
1	1436	5615
1	1476	5616
1	1525	5617
1	1577	5618
1	1625	5619
1	1788	5580
1	1792	5581
1	1791	5582
1	1782	5583
1	1755	5584
1	1717	5585
1	1667	5586
1	1610	5587
1	1553	5588
1	1492	5589
1	1446	5590
1	1419	5591
1	1411	5592
1	1424	5593
1	1454	5594
1	1508	5595
1	1570	5596
1	1629	5597
1	1686	5598
1	1731	5599
1	1661	5620
1	1685	5621
1	1687	5622
1	1674	5623
1	1652	5624
1	1619	5625
1	1580	5626
1	1535	5627
1	1505	5628
1	1479	5629
1	1465	5630
1	1466	5631
1	1477	5632
1	1498	5633
1	1518	5634
1	1546	5635
1	1577	5636
1	1607	5637
1	1635	5638
1	1651	5639
1	1657	5640
1	1647	5641
1	1632	5642
1	1605	5643
1	1562	5644
1	1517	5645
1	1465	5646
1	1417	5647
1	1373	5648
1	1352	5649
1	1347	5650
1	1363	5651
1	1395	5652
1	1428	5653
1	1476	5654
1	1530	5655
1	1593	5656
1	1652	5657
1	1710	5658
1	1738	5659
1	1655	5680
1	1695	5681
1	1719	5682
1	1723	5683
1	1712	5684
1	1677	5685
1	1625	5686
1	1579	5687
1	1539	5688
1	1498	5689
1	1456	5690
1	1428	5691
1	1417	5692
1	1422	5693
1	1439	5694
1	1474	5695
1	1513	5696
1	1559	5697
1	1600	5698
1	1638	5699
1	1750	5660
1	1738	5661
1	1712	5662
1	1682	5663
1	1644	5664
1	1600	5665
1	1544	5666
1	1491	5667
1	1439	5668
1	1402	5669
1	1372	5670
1	1359	5671
1	1346	5672
1	1350	5673
1	1356	5674
1	1381	5675
1	1427	5676
1	1484	5677
1	1544	5678
1	1600	5679
1	1674	5700
1	1699	5701
1	1715	5702
1	1727	5703
1	1729	5704
1	1720	5705
1	1707	5706
1	1683	5707
1	1647	5708
1	1602	5709
1	1556	5710
1	1517	5711
1	1490	5712
1	1479	5713
1	1487	5714
1	1516	5715
1	1550	5716
1	1590	5717
1	1642	5718
1	1693	5719
1	1738	5720
1	1778	5721
1	1808	5722
1	1816	5723
1	1801	5724
1	1776	5725
1	1736	5726
1	1686	5727
1	1634	5728
1	1590	5729
1	1555	5730
1	1528	5731
1	1508	5732
1	1507	5733
1	1508	5734
1	1532	5735
1	1561	5736
1	1587	5737
1	1621	5738
1	1660	5739
1	1697	5740
1	1726	5741
1	1746	5742
1	1747	5743
1	1737	5744
1	1707	5745
1	1674	5746
1	1634	5747
1	1602	5748
1	1567	5749
1	1540	5750
1	1529	5751
1	1523	5752
1	1529	5753
1	1549	5754
1	1577	5755
1	1616	5756
1	1659	5757
1	1697	5758
1	1721	5759
1	1730	5760
1	1727	5761
1	1706	5762
1	1684	5763
1	1643	5764
1	1602	5765
1	1561	5766
1	1524	5767
1	1487	5768
1	1458	5769
1	1437	5770
1	1429	5771
1	1437	5772
1	1450	5773
1	1489	5774
1	1541	5775
1	1598	5776
1	1658	5777
1	1721	5778
1	1767	5779
1	1791	5780
1	1795	5781
1	1783	5782
1	1760	5783
1	1724	5784
1	1682	5785
1	1631	5786
1	1580	5787
1	1523	5788
1	1477	5789
1	1445	5790
1	1427	5791
1	1427	5792
1	1451	5793
1	1490	5794
1	1542	5795
1	1600	5796
1	1660	5797
1	1718	5798
1	1765	5799
1	1798	5800
1	1827	5801
1	1841	5802
1	1832	5803
1	1813	5804
1	1777	5805
1	1736	5806
1	1686	5807
1	1642	5808
1	1602	5809
1	1577	5810
1	1565	5811
1	1562	5812
1	1571	5813
1	1582	5814
1	1605	5815
1	1641	5816
1	1690	5817
1	1741	5818
1	1803	5819
1	1765	5840
1	1772	5841
1	1758	5842
1	1728	5843
1	1686	5844
1	1635	5845
1	1583	5846
1	1540	5847
1	1502	5848
1	1486	5849
1	1485	5850
1	1499	5851
1	1530	5852
1	1594	5853
1	1672	5854
1	1770	5855
1	1886	5856
1	2000	5857
1	2113	5858
1	2228	5859
1	1856	5820
1	1884	5821
1	1895	5822
1	1888	5823
1	1863	5824
1	1827	5825
1	1779	5826
1	1728	5827
1	1672	5828
1	1623	5829
1	1582	5830
1	1555	5831
1	1546	5832
1	1550	5833
1	1567	5834
1	1591	5835
1	1619	5836
1	1660	5837
1	1710	5838
1	1746	5839
1	2340	5860
1	2436	5861
1	2515	5862
1	2573	5863
1	2633	5864
1	2684	5865
1	2725	5866
1	2758	5867
1	2783	5868
1	2810	5869
1	2845	5870
1	2886	5871
1	2940	5872
1	2994	5873
1	3043	5874
1	3088	5875
1	3130	5876
1	3130	5877
1	3130	5878
1	3117	5879
1	3039	5880
1	2938	5881
1	2823	5882
1	2707	5883
1	2591	5884
1	2481	5885
1	2353	5886
1	2241	5887
1	2136	5888
1	2052	5889
1	1987	5890
1	1941	5891
1	1913	5892
1	1895	5893
1	1895	5894
1	1895	5895
1	1898	5896
1	1906	5897
1	1922	5898
1	1923	5899
1	1914	5900
1	1887	5901
1	1845	5902
1	1780	5903
1	1695	5904
1	1593	5905
1	1477	5906
1	1357	5907
1	1241	5908
1	1151	5909
1	1093	5910
1	1058	5911
1	1049	5912
1	1068	5913
1	1102	5914
1	1141	5915
1	1188	5916
1	1242	5917
1	1311	5918
1	1379	5919
1	1441	5920
1	1488	5921
1	1521	5922
1	1539	5923
1	1551	5924
1	1546	5925
1	1529	5926
1	1493	5927
1	1445	5928
1	1384	5929
1	1338	5930
1	1312	5931
1	1294	5932
1	1292	5933
1	1302	5934
1	1319	5935
1	1337	5936
1	1355	5937
1	1372	5938
1	1395	5939
1	1409	5940
1	1422	5941
1	1424	5942
1	1424	5943
1	1404	5944
1	1384	5945
1	1373	5946
1	1368	5947
1	1363	5948
1	1358	5949
1	1359	5950
1	1372	5951
1	1393	5952
1	1413	5953
1	1445	5954
1	1476	5955
1	1508	5956
1	1540	5957
1	1575	5958
1	1602	5959
1	1615	5960
1	1607	5961
1	1581	5962
1	1535	5963
1	1477	5964
1	1415	5965
1	1347	5966
1	1294	5967
1	1245	5968
1	1206	5969
1	1179	5970
1	1167	5971
1	1179	5972
1	1216	5973
1	1269	5974
1	1328	5975
1	1398	5976
1	1461	5977
1	1518	5978
1	1562	5979
1	1597	5980
1	1618	5981
1	1625	5982
1	1616	5983
1	1607	5984
1	1605	5985
1	1602	5986
1	1589	5987
1	1561	5988
1	1518	5989
1	1476	5990
1	1432	5991
1	1402	5992
1	1383	5993
1	1384	5994
1	1399	5995
1	1424	5996
1	1449	5997
1	1463	5998
1	1480	5999
1	1494	6000
1	1507	6001
1	1517	6002
1	1520	6003
1	1506	6004
1	1491	6005
1	1472	6006
1	1443	6007
1	1417	6008
1	1393	6009
1	1368	6010
1	1346	6011
1	1346	6012
1	1350	6013
1	1377	6014
1	1421	6015
1	1459	6016
1	1498	6017
1	1531	6018
1	1550	6019
1	1559	6020
1	1567	6021
1	1565	6022
1	1551	6023
1	1527	6024
1	1495	6025
1	1461	6026
1	1424	6027
1	1375	6028
1	1341	6029
1	1317	6030
1	1302	6031
1	1305	6032
1	1325	6033
1	1350	6034
1	1399	6035
1	1458	6036
1	1501	6037
1	1555	6038
1	1606	6039
1	1643	6040
1	1669	6041
1	1688	6042
1	1699	6043
1	1701	6044
1	1688	6045
1	1668	6046
1	1636	6047
1	1602	6048
1	1555	6049
1	1512	6050
1	1488	6051
1	1466	6052
1	1453	6053
1	1450	6054
1	1463	6055
1	1485	6056
1	1516	6057
1	1543	6058
1	1568	6059
1	1587	6060
1	1598	6061
1	1598	6062
1	1593	6063
1	1569	6064
1	1543	6065
1	1520	6066
1	1500	6067
1	1485	6068
1	1472	6069
1	1468	6070
1	1476	6071
1	1500	6072
1	1519	6073
1	1553	6074
1	1593	6075
1	1651	6076
1	1715	6077
1	1766	6078
1	1794	6079
1	1808	6080
1	1800	6081
1	1791	6082
1	1782	6083
1	1770	6084
1	1757	6085
1	1726	6086
1	1686	6087
1	1634	6088
1	1584	6089
1	1541	6090
1	1505	6091
1	1487	6092
1	1491	6093
1	1514	6094
1	1555	6095
1	1605	6096
1	1650	6097
1	1697	6098
1	1739	6099
1	1769	6100
1	1787	6101
1	1783	6102
1	1759	6103
1	1728	6104
1	1695	6105
1	1654	6106
1	1613	6107
1	1582	6108
1	1555	6109
1	1540	6110
1	1539	6111
1	1551	6112
1	1564	6113
1	1581	6114
1	1605	6115
1	1629	6116
1	1660	6117
1	1686	6118
1	1719	6119
1	1744	6120
1	1760	6121
1	1764	6122
1	1765	6123
1	1744	6124
1	1711	6125
1	1675	6126
1	1642	6127
1	1608	6128
1	1584	6129
1	1572	6130
1	1568	6131
1	1572	6132
1	1585	6133
1	1613	6134
1	1656	6135
1	1706	6136
1	1757	6137
1	1816	6138
1	1854	6139
1	1878	6140
1	1891	6141
1	1895	6142
1	1880	6143
1	1854	6144
1	1811	6145
1	1748	6146
1	1688	6147
1	1629	6148
1	1584	6149
1	1555	6150
1	1544	6151
1	1555	6152
1	1589	6153
1	1634	6154
1	1692	6155
1	1751	6156
1	1809	6157
1	1845	6158
1	1863	6159
1	1869	6160
1	1866	6161
1	1853	6162
1	1818	6163
1	1777	6164
1	1734	6165
1	1687	6166
1	1636	6167
1	1587	6168
1	1544	6169
1	1508	6170
1	1488	6171
1	1479	6172
1	1499	6173
1	1539	6174
1	1596	6175
1	1660	6176
1	1712	6177
1	1744	6178
1	1765	6179
1	1776	6180
1	1770	6181
1	1754	6182
1	1734	6183
1	1695	6184
1	1643	6185
1	1581	6186
1	1520	6187
1	1459	6188
1	1416	6189
1	1376	6190
1	1359	6191
1	1355	6192
1	1372	6193
1	1405	6194
1	1451	6195
1	1513	6196
1	1569	6197
1	1625	6198
1	1665	6199
1	1695	6200
1	1706	6201
1	1698	6202
1	1680	6203
1	1659	6204
1	1632	6205
1	1594	6206
1	1546	6207
1	1490	6208
1	1449	6209
1	1412	6210
1	1374	6211
1	1351	6212
1	1363	6213
1	1384	6214
1	1438	6215
1	1499	6216
1	1564	6217
1	1628	6218
1	1675	6219
1	1710	6220
1	1726	6221
1	1728	6222
1	1700	6223
1	1672	6224
1	1641	6225
1	1603	6226
1	1564	6227
1	1533	6228
1	1497	6229
1	1471	6230
1	1460	6231
1	1464	6232
1	1474	6233
1	1488	6234
1	1520	6235
1	1558	6236
1	1607	6237
1	1657	6238
1	1695	6239
1	1730	6240
1	1751	6241
1	1752	6242
1	1733	6243
1	1697	6244
1	1657	6245
1	1621	6246
1	1581	6247
1	1531	6248
1	1487	6249
1	1453	6250
1	1436	6251
1	1431	6252
1	1437	6253
1	1463	6254
1	1498	6255
1	1534	6256
1	1569	6257
1	1605	6258
1	1629	6259
1	1650	6260
1	1662	6261
1	1668	6262
1	1665	6263
1	1658	6264
1	1639	6265
1	1616	6266
1	1589	6267
1	1555	6268
1	1525	6269
1	1495	6270
1	1475	6271
1	1454	6272
1	1452	6273
1	1459	6274
1	1481	6275
1	1518	6276
1	1563	6277
1	1609	6278
1	1646	6279
1	1660	6280
1	1651	6281
1	1631	6282
1	1587	6283
1	1543	6284
1	1495	6285
1	1446	6286
1	1401	6287
1	1364	6288
1	1341	6289
1	1334	6290
1	1346	6291
1	1370	6292
1	1410	6293
1	1450	6294
1	1499	6295
1	1553	6296
1	1602	6297
1	1643	6298
1	1674	6299
1	1692	6300
1	1697	6301
1	1686	6302
1	1674	6303
1	1647	6304
1	1611	6305
1	1573	6306
1	1532	6307
1	1493	6308
1	1453	6309
1	1423	6310
1	1403	6311
1	1400	6312
1	1413	6313
1	1445	6314
1	1486	6315
1	1541	6316
1	1602	6317
1	1669	6318
1	1719	6319
1	1753	6320
1	1761	6321
1	1751	6322
1	1717	6323
1	1677	6324
1	1634	6325
1	1586	6326
1	1539	6327
1	1492	6328
1	1453	6329
1	1430	6330
1	1412	6331
1	1398	6332
1	1396	6333
1	1398	6334
1	1430	6335
1	1474	6336
1	1503	6337
1	1549	6338
1	1593	6339
1	1629	6340
1	1649	6341
1	1655	6342
1	1642	6343
1	1608	6344
1	1571	6345
1	1529	6346
1	1488	6347
1	1453	6348
1	1431	6349
1	1418	6350
1	1427	6351
1	1458	6352
1	1497	6353
1	1535	6354
1	1575	6355
1	1615	6356
1	1662	6357
1	1703	6358
1	1738	6359
1	1751	6360
1	1752	6361
1	1739	6362
1	1718	6363
1	1678	6364
1	1629	6365
1	1575	6366
1	1527	6367
1	1487	6368
1	1458	6369
1	1441	6370
1	1443	6371
1	1464	6372
1	1494	6373
1	1538	6374
1	1590	6375
1	1647	6376
1	1705	6377
1	1765	6378
1	1826	6379
1	1869	6380
1	1901	6381
1	1922	6382
1	1923	6383
1	1913	6384
1	1885	6385
1	1841	6386
1	1776	6387
1	1698	6388
1	1620	6389
1	1542	6390
1	1474	6391
1	1430	6392
1	1427	6393
1	1441	6394
1	1467	6395
1	1503	6396
1	1539	6397
1	1574	6398
1	1611	6399
1	1647	6400
1	1673	6401
1	1686	6402
1	1677	6403
1	1655	6404
1	1616	6405
1	1567	6406
1	1521	6407
1	1489	6408
1	1465	6409
1	1458	6410
1	1466	6411
1	1485	6412
1	1512	6413
1	1546	6414
1	1593	6415
1	1641	6416
1	1685	6417
1	1712	6418
1	1726	6419
1	1725	6420
1	1711	6421
1	1686	6422
1	1660	6423
1	1622	6424
1	1579	6425
1	1529	6426
1	1481	6427
1	1442	6428
1	1403	6429
1	1371	6430
1	1351	6431
1	1346	6432
1	1351	6433
1	1377	6434
1	1423	6435
1	1472	6436
1	1525	6437
1	1575	6438
1	1607	6439
1	1625	6440
1	1634	6441
1	1647	6442
1	1651	6443
1	1647	6444
1	1646	6445
1	1638	6446
1	1634	6447
1	1610	6448
1	1582	6449
1	1551	6450
1	1513	6451
1	1489	6452
1	1477	6453
1	1476	6454
1	1485	6455
1	1502	6456
1	1519	6457
1	1537	6458
1	1552	6459
1	1554	6460
1	1544	6461
1	1528	6462
1	1499	6463
1	1467	6464
1	1436	6465
1	1399	6466
1	1369	6467
1	1349	6468
1	1337	6469
1	1328	6470
1	1338	6471
1	1367	6472
1	1406	6473
1	1449	6474
1	1502	6475
1	1561	6476
1	1617	6477
1	1652	6478
1	1683	6479
1	1699	6480
1	1697	6481
1	1676	6482
1	1647	6483
1	1607	6484
1	1562	6485
1	1515	6486
1	1468	6487
1	1428	6488
1	1398	6489
1	1372	6490
1	1359	6491
1	1363	6492
1	1372	6493
1	1401	6494
1	1432	6495
1	1466	6496
1	1503	6497
1	1540	6498
1	1566	6499
1	1583	6500
1	1592	6501
1	1589	6502
1	1578	6503
1	1555	6504
1	1529	6505
1	1502	6506
1	1473	6507
1	1441	6508
1	1418	6509
1	1383	6510
1	1355	6511
1	1342	6512
1	1354	6513
1	1381	6514
1	1424	6515
1	1475	6516
1	1528	6517
1	1579	6518
1	1620	6519
1	2752	6540
1	2821	6541
1	2859	6542
1	2859	6543
1	2870	6544
1	2834	6545
1	2782	6546
1	2715	6547
1	2631	6548
1	2536	6549
1	2449	6550
1	2353	6551
1	2268	6552
1	2183	6553
1	2131	6554
1	2097	6555
1	2076	6556
1	2051	6557
1	2021	6558
1	1980	6559
1	1645	6520
1	1651	6521
1	1647	6522
1	1632	6523
1	1616	6524
1	1607	6525
1	1607	6526
1	1615	6527
1	1641	6528
1	1678	6529
1	1738	6530
1	1814	6531
1	1909	6532
1	2001	6533
1	2106	6534
1	2230	6535
1	2360	6536
1	2491	6537
1	2584	6538
1	2673	6539
1	1934	6560
1	1893	6561
1	1858	6562
1	1817	6563
1	1765	6564
1	1720	6565
1	1674	6566
1	1633	6567
1	1589	6568
1	1544	6569
1	1502	6570
1	1459	6571
1	1430	6572
1	1415	6573
1	1401	6574
1	1384	6575
1	1371	6576
1	1350	6577
1	1332	6578
1	1311	6579
1	1283	6580
1	1254	6581
1	1227	6582
1	1193	6583
1	1162	6584
1	1125	6585
1	1082	6586
1	1035	6587
1	1006	6588
1	986	6589
1	989	6590
1	1013	6591
1	1049	6592
1	1101	6593
1	1162	6594
1	1229	6595
1	1297	6596
1	1358	6597
1	1417	6598
1	1461	6599
1	1490	6600
1	1505	6601
1	1506	6602
1	1503	6603
1	1481	6604
1	1449	6605
1	1405	6606
1	1360	6607
1	1327	6608
1	1306	6609
1	1295	6610
1	1297	6611
1	1312	6612
1	1328	6613
1	1368	6614
1	1422	6615
1	1481	6616
1	1540	6617
1	1587	6618
1	1607	6619
1	1618	6620
1	1608	6621
1	1593	6622
1	1569	6623
1	1541	6624
1	1513	6625
1	1491	6626
1	1472	6627
1	1449	6628
1	1432	6629
1	1424	6630
1	1425	6631
1	1438	6632
1	1465	6633
1	1477	6634
1	1503	6635
1	1531	6636
1	1556	6637
1	1590	6638
1	1617	6639
1	1631	6640
1	1629	6641
1	1615	6642
1	1591	6643
1	1553	6644
1	1503	6645
1	1446	6646
1	1393	6647
1	1345	6648
1	1314	6649
1	1293	6650
1	1286	6651
1	1292	6652
1	1305	6653
1	1335	6654
1	1393	6655
1	1463	6656
1	1529	6657
1	1576	6658
1	1607	6659
1	1631	6660
1	1636	6661
1	1629	6662
1	1613	6663
1	1585	6664
1	1559	6665
1	1529	6666
1	1503	6667
1	1482	6668
1	1472	6669
1	1463	6670
1	1463	6671
1	1476	6672
1	1490	6673
1	1520	6674
1	1556	6675
1	1605	6676
1	1656	6677
1	1713	6678
1	1764	6679
1	1795	6680
1	1813	6681
1	1792	6682
1	1751	6683
1	1694	6684
1	1634	6685
1	1579	6686
1	1530	6687
1	1485	6688
1	1454	6689
1	1446	6690
1	1454	6691
1	1468	6692
1	1489	6693
1	1508	6694
1	1532	6695
1	1571	6696
1	1608	6697
1	1658	6698
1	1700	6699
1	1737	6700
1	1760	6701
1	1773	6702
1	1764	6703
1	1738	6704
1	1701	6705
1	1648	6706
1	1592	6707
1	1537	6708
1	1489	6709
1	1452	6710
1	1439	6711
1	1440	6712
1	1461	6713
1	1490	6714
1	1523	6715
1	1561	6716
1	1606	6717
1	1638	6718
1	1672	6719
1	1694	6720
1	1707	6721
1	1711	6722
1	1710	6723
1	1686	6724
1	1656	6725
1	1621	6726
1	1593	6727
1	1567	6728
1	1549	6729
1	1535	6730
1	1529	6731
1	1533	6732
1	1546	6733
1	1571	6734
1	1598	6735
1	1629	6736
1	1659	6737
1	1691	6738
1	1722	6739
1	1745	6740
1	1762	6741
1	1769	6742
1	1760	6743
1	1737	6744
1	1703	6745
1	1665	6746
1	1632	6747
1	1590	6748
1	1559	6749
1	1548	6750
1	1548	6751
1	1566	6752
1	1602	6753
1	1634	6754
1	1677	6755
1	1723	6756
1	1769	6757
1	1818	6758
1	1867	6759
1	1905	6760
1	1923	6761
1	1922	6762
1	1896	6763
1	1863	6764
1	1819	6765
1	1769	6766
1	1717	6767
1	1677	6768
1	1634	6769
1	1603	6770
1	1583	6771
1	1580	6772
1	1590	6773
1	1616	6774
1	1651	6775
1	1692	6776
1	1729	6777
1	1752	6778
1	1782	6779
1	1800	6800
1	1814	6801
1	1816	6802
1	1817	6803
1	1801	6804
1	1781	6805
1	1750	6806
1	1713	6807
1	1680	6808
1	1656	6809
1	1642	6810
1	1635	6811
1	1638	6812
1	1651	6813
1	1674	6814
1	1710	6815
1	1750	6816
1	1791	6817
1	1838	6818
1	1867	6819
1	1895	6800
1	1907	6801
1	1904	6802
1	1892	6803
1	1867	6804
1	1835	6805
1	1791	6806
1	1751	6807
1	1701	6808
1	1661	6809
1	1636	6810
1	1625	6811
1	1620	6812
1	1631	6813
1	1647	6814
1	1670	6815
1	1700	6816
1	1735	6817
1	1766	6818
1	1799	6819
1	1821	6820
1	1829	6821
1	1824	6822
1	1801	6823
1	1776	6824
1	1738	6825
1	1694	6826
1	1656	6827
1	1628	6828
1	1597	6829
1	1571	6830
1	1557	6831
1	1565	6832
1	1589	6833
1	1616	6834
1	1652	6835
1	1685	6836
1	1701	6837
1	1715	6838
1	1728	6839
1	1738	6840
1	1739	6841
1	1728	6842
1	1708	6843
1	1673	6844
1	1634	6845
1	1600	6846
1	1570	6847
1	1535	6848
1	1503	6849
1	1476	6850
1	1466	6851
1	1467	6852
1	1474	6853
1	1494	6854
1	1528	6855
1	1566	6856
1	1607	6857
1	1644	6858
1	1660	6859
1	1665	6860
1	1660	6861
1	1647	6862
1	1629	6863
1	1607	6864
1	1587	6865
1	1572	6866
1	1561	6867
1	1543	6868
1	1530	6869
1	1517	6870
1	1512	6871
1	1518	6872
1	1541	6873
1	1569	6874
1	1602	6875
1	1634	6876
1	1660	6877
1	1686	6878
1	1708	6879
1	1727	6880
1	1738	6881
1	1733	6882
1	1705	6883
1	1665	6884
1	1616	6885
1	1561	6886
1	1514	6887
1	1476	6888
1	1437	6889
1	1415	6890
1	1409	6891
1	1424	6892
1	1449	6893
1	1479	6894
1	1523	6895
1	1572	6896
1	1624	6897
1	1670	6898
1	1711	6899
1	1733	6900
1	1739	6901
1	1734	6902
1	1721	6903
1	1699	6904
1	1662	6905
1	1624	6906
1	1581	6907
1	1537	6908
1	1502	6909
1	1467	6910
1	1441	6911
1	1431	6912
1	1436	6913
1	1461	6914
1	1500	6915
1	1551	6916
1	1597	6917
1	1641	6918
1	1662	6919
1	1679	6920
1	1686	6921
1	1687	6922
1	1684	6923
1	1667	6924
1	1646	6925
1	1607	6926
1	1577	6927
1	1543	6928
1	1518	6929
1	1497	6930
1	1476	6931
1	1459	6932
1	1462	6933
1	1467	6934
1	1494	6935
1	1528	6936
1	1555	6937
1	1581	6938
1	1607	6939
1	1615	6940
1	1612	6941
1	1607	6942
1	1607	6943
1	1598	6944
1	1587	6945
1	1577	6946
1	1549	6947
1	1517	6948
1	1476	6949
1	1437	6950
1	1413	6951
1	1408	6952
1	1417	6953
1	1443	6954
1	1482	6955
1	1531	6956
1	1581	6957
1	1633	6958
1	1679	6959
1	1715	6960
1	1738	6961
1	1746	6962
1	1743	6963
1	1723	6964
1	1699	6965
1	1674	6966
1	1643	6967
1	1606	6968
1	1564	6969
1	1531	6970
1	1514	6971
1	1504	6972
1	1503	6973
1	1508	6974
1	1523	6975
1	1538	6976
1	1554	6977
1	1573	6978
1	1593	6979
1	1612	6980
1	1634	6981
1	1641	6982
1	1635	6983
1	1620	6984
1	1598	6985
1	1575	6986
1	1549	6987
1	1517	6988
1	1490	6989
1	1472	6990
1	1463	6991
1	1472	6992
1	1503	6993
1	1544	6994
1	1590	6995
1	1633	6996
1	1672	6997
1	1698	6998
1	1721	6999
1	1736	7000
1	1738	7001
1	1734	7002
1	1703	7003
1	1665	7004
1	1623	7005
1	1576	7006
1	1528	7007
1	1485	7008
1	1440	7009
1	1406	7010
1	1382	7011
1	1391	7012
1	1415	7013
1	1450	7014
1	1495	7015
1	1547	7016
1	1600	7017
1	1646	7018
1	1691	7019
1	1723	7020
1	1741	7021
1	1751	7022
1	1755	7023
1	1740	7024
1	1720	7025
1	1690	7026
1	1657	7027
1	1613	7028
1	1580	7029
1	1546	7030
1	1530	7031
1	1528	7032
1	1531	7033
1	1551	7034
1	1579	7035
1	1613	7036
1	1657	7037
1	1710	7038
1	1752	7039
1	1780	7040
1	1793	7041
1	1798	7042
1	1777	7043
1	1747	7044
1	1714	7045
1	1679	7046
1	1638	7047
1	1594	7048
1	1561	7049
1	1542	7050
1	1536	7051
1	1540	7052
1	1562	7053
1	1593	7054
1	1634	7055
1	1679	7056
1	1728	7057
1	1773	7058
1	1818	7059
1	1854	7060
1	1881	7061
1	1893	7062
1	1875	7063
1	1850	7064
1	1803	7065
1	1743	7066
1	1679	7067
1	1626	7068
1	1582	7069
1	1551	7070
1	1535	7071
1	1529	7072
1	1539	7073
1	1556	7074
1	1593	7075
1	1647	7076
1	1707	7077
1	1751	7078
1	1788	7079
1	1809	7080
1	1813	7081
1	1803	7082
1	1787	7083
1	1757	7084
1	1717	7085
1	1679	7086
1	1634	7087
1	1589	7088
1	1546	7089
1	1517	7090
1	1503	7091
1	1507	7092
1	1519	7093
1	1547	7094
1	1585	7095
1	1627	7096
1	1670	7097
1	1716	7098
1	1747	7099
1	1761	7100
1	1765	7101
1	1763	7102
1	1746	7103
1	1720	7104
1	1677	7105
1	1620	7106
1	1564	7107
1	1508	7108
1	1469	7109
1	1432	7110
1	1400	7111
1	1384	7112
1	1397	7113
1	1413	7114
1	1449	7115
1	1504	7116
1	1567	7117
1	1622	7118
1	1661	7119
1	1701	7140
1	1712	7141
1	1708	7142
1	1695	7143
1	1661	7144
1	1625	7145
1	1583	7146
1	1543	7147
1	1497	7148
1	1459	7149
1	1436	7150
1	1423	7151
1	1424	7152
1	1445	7153
1	1490	7154
1	1544	7155
1	1597	7156
1	1651	7157
1	1703	7158
1	1738	7159
1	1692	7120
1	1704	7121
1	1703	7122
1	1686	7123
1	1661	7124
1	1632	7125
1	1585	7126
1	1536	7127
1	1489	7128
1	1445	7129
1	1410	7130
1	1394	7131
1	1397	7132
1	1417	7133
1	1445	7134
1	1494	7135
1	1550	7136
1	1600	7137
1	1643	7138
1	1680	7139
1	1754	7160
1	1759	7161
1	1751	7162
1	1733	7163
1	1700	7164
1	1660	7165
1	1620	7166
1	1580	7167
1	1536	7168
1	1500	7169
1	1469	7170
1	1452	7171
1	1452	7172
1	1469	7173
1	1485	7174
1	1510	7175
1	1539	7176
1	1566	7177
1	1587	7178
1	1610	7179
1	1631	7180
1	1634	7181
1	1616	7182
1	1581	7183
1	1542	7184
1	1503	7185
1	1476	7186
1	1455	7187
1	1450	7188
1	1449	7189
1	1455	7190
1	1467	7191
1	1485	7192
1	1507	7193
1	1533	7194
1	1577	7195
1	1633	7196
1	1694	7197
1	1759	7198
1	1825	7199
1	1877	7200
1	1926	7201
1	1976	7202
1	2028	7203
1	2070	7204
1	2105	7205
1	2133	7206
1	2168	7207
1	2212	7208
1	2281	7209
1	2364	7210
1	2456	7211
1	2545	7212
1	2634	7213
1	2724	7214
1	2804	7215
1	2888	7216
1	2967	7217
1	3026	7218
1	3064	7219
1	3072	7220
1	3049	7221
1	2990	7222
1	2897	7223
1	2767	7224
1	2611	7225
1	2460	7226
1	2300	7227
1	2157	7228
1	2045	7229
1	1959	7230
1	1896	7231
1	1849	7232
1	1821	7233
1	1790	7234
1	1786	7235
1	1782	7236
1	1778	7237
1	1790	7238
1	1803	7239
1	1820	7240
1	1830	7241
1	1818	7242
1	1783	7243
1	1736	7244
1	1668	7245
1	1594	7246
1	1521	7247
1	1445	7248
1	1361	7249
1	1292	7250
1	1240	7251
1	1215	7252
1	1212	7253
1	1225	7254
1	1252	7255
1	1283	7256
1	1314	7257
1	1341	7258
1	1374	7259
1	1665	7280
1	1703	7281
1	1711	7282
1	1692	7283
1	1660	7284
1	1616	7285
1	1569	7286
1	1521	7287
1	1468	7288
1	1428	7289
1	1398	7290
1	1374	7291
1	1372	7292
1	1391	7293
1	1415	7294
1	1441	7295
1	1476	7296
1	1518	7297
1	1555	7298
1	1585	7299
1	1413	7260
1	1423	7261
1	1412	7262
1	1395	7263
1	1372	7264
1	1346	7265
1	1314	7266
1	1277	7267
1	1233	7268
1	1189	7269
1	1162	7270
1	1153	7271
1	1162	7272
1	1186	7273
1	1229	7274
1	1285	7275
1	1354	7276
1	1440	7277
1	1530	7278
1	1607	7279
1	1607	7300
1	1616	7301
1	1623	7302
1	1611	7303
1	1602	7304
1	1580	7305
1	1555	7306
1	1534	7307
1	1520	7308
1	1508	7309
1	1502	7310
1	1503	7311
1	1517	7312
1	1530	7313
1	1549	7314
1	1579	7315
1	1608	7316
1	1642	7317
1	1661	7318
1	1680	7319
1	1691	7320
1	1699	7321
1	1712	7322
1	1715	7323
1	1707	7324
1	1685	7325
1	1649	7326
1	1609	7327
1	1571	7328
1	1535	7329
1	1507	7330
1	1493	7331
1	1481	7332
1	1475	7333
1	1479	7334
1	1494	7335
1	1526	7336
1	1564	7337
1	1608	7338
1	1642	7339
1	1679	7340
1	1705	7341
1	1712	7342
1	1712	7343
1	1700	7344
1	1681	7345
1	1659	7346
1	1626	7347
1	1593	7348
1	1574	7349
1	1557	7350
1	1555	7351
1	1560	7352
1	1584	7353
1	1611	7354
1	1648	7355
1	1684	7356
1	1701	7357
1	1710	7358
1	1711	7359
1	1848	7380
1	1869	7381
1	1879	7382
1	1877	7383
1	1856	7384
1	1826	7385
1	1773	7386
1	1716	7387
1	1660	7388
1	1607	7389
1	1573	7390
1	1550	7391
1	1554	7392
1	1575	7393
1	1607	7394
1	1652	7395
1	1702	7396
1	1744	7397
1	1788	7398
1	1819	7399
1	1701	7360
1	1687	7361
1	1670	7362
1	1643	7363
1	1607	7364
1	1559	7365
1	1503	7366
1	1452	7367
1	1425	7368
1	1413	7369
1	1424	7370
1	1454	7371
1	1503	7372
1	1550	7373
1	1595	7374
1	1643	7375
1	1692	7376
1	1738	7377
1	1776	7378
1	1817	7379
1	1845	7400
1	1864	7401
1	1866	7402
1	1846	7403
1	1814	7404
1	1764	7405
1	1718	7406
1	1679	7407
1	1638	7408
1	1616	7409
1	1610	7410
1	1613	7411
1	1628	7412
1	1660	7413
1	1698	7414
1	1743	7415
1	1795	7416
1	1843	7417
1	1881	7418
1	1904	7419
1	1908	7440
1	1894	7441
1	1859	7442
1	1814	7443
1	1764	7444
1	1723	7445
1	1685	7446
1	1647	7447
1	1623	7448
1	1595	7449
1	1574	7450
1	1564	7451
1	1571	7452
1	1606	7453
1	1639	7454
1	1697	7455
1	1764	7456
1	1832	7457
1	1885	7458
1	1926	7459
1	1956	7440
1	1981	7441
1	2000	7442
1	2000	7443
1	1974	7444
1	1934	7445
1	1886	7446
1	1837	7447
1	1780	7448
1	1739	7449
1	1714	7450
1	1706	7451
1	1708	7452
1	1712	7453
1	1727	7454
1	1754	7455
1	1791	7456
1	1842	7457
1	1893	7458
1	1934	7459
1	1955	7460
1	1953	7461
1	1942	7462
1	1917	7463
1	1890	7464
1	1861	7465
1	1843	7466
1	1829	7467
1	1814	7468
1	1801	7469
1	1798	7470
1	1791	7471
1	1787	7472
1	1809	7473
1	1840	7474
1	1880	7475
1	1922	7476
1	1964	7477
1	1999	7478
1	2024	7479
1	2032	7480
1	2030	7481
1	2013	7482
1	1967	7483
1	1913	7484
1	1847	7485
1	1782	7486
1	1731	7487
1	1694	7488
1	1664	7489
1	1648	7490
1	1639	7491
1	1655	7492
1	1674	7493
1	1703	7494
1	1741	7495
1	1787	7496
1	1834	7497
1	1868	7498
1	1894	7499
1	1908	7500
1	1913	7501
1	1913	7502
1	1908	7503
1	1894	7504
1	1868	7505
1	1837	7506
1	1791	7507
1	1747	7508
1	1710	7509
1	1683	7510
1	1662	7511
1	1661	7512
1	1668	7513
1	1692	7514
1	1727	7515
1	1766	7516
1	1809	7517
1	1850	7518
1	1870	7519
1	1881	7520
1	1884	7521
1	1881	7522
1	1869	7523
1	1844	7524
1	1801	7525
1	1749	7526
1	1692	7527
1	1634	7528
1	1581	7529
1	1539	7530
1	1513	7531
1	1510	7532
1	1535	7533
1	1572	7534
1	1634	7535
1	1701	7536
1	1762	7537
1	1819	7538
1	1854	7539
1	1885	7540
1	1891	7541
1	1875	7542
1	1843	7543
1	1800	7544
1	1760	7545
1	1713	7546
1	1670	7547
1	1634	7548
1	1595	7549
1	1563	7550
1	1544	7551
1	1539	7552
1	1553	7553
1	1591	7554
1	1646	7555
1	1705	7556
1	1757	7557
1	1793	7558
1	1836	7559
1	1860	7560
1	1875	7561
1	1877	7562
1	1864	7563
1	1832	7564
1	1791	7565
1	1755	7566
1	1713	7567
1	1672	7568
1	1625	7569
1	1582	7570
1	1554	7571
1	1547	7572
1	1550	7573
1	1572	7574
1	1608	7575
1	1657	7576
1	1700	7577
1	1754	7578
1	1791	7579
1	1817	7580
1	1823	7581
1	1817	7582
1	1795	7583
1	1764	7584
1	1724	7585
1	1682	7586
1	1645	7587
1	1607	7588
1	1586	7589
1	1580	7590
1	1582	7591
1	1607	7592
1	1644	7593
1	1684	7594
1	1718	7595
1	1751	7596
1	1777	7597
1	1809	7598
1	1826	7599
1	1835	7600
1	1833	7601
1	1826	7602
1	1795	7603
1	1762	7604
1	1723	7605
1	1686	7606
1	1647	7607
1	1612	7608
1	1574	7609
1	1548	7610
1	1544	7611
1	1560	7612
1	1587	7613
1	1620	7614
1	1659	7615
1	1705	7616
1	1751	7617
1	1791	7618
1	1829	7619
1	1803	7640
1	1789	7641
1	1760	7642
1	1727	7643
1	1695	7644
1	1660	7645
1	1624	7646
1	1593	7647
1	1561	7648
1	1541	7649
1	1533	7650
1	1543	7651
1	1569	7652
1	1605	7653
1	1637	7654
1	1675	7655
1	1707	7656
1	1738	7657
1	1767	7658
1	1796	7659
1	1845	7620
1	1842	7621
1	1822	7622
1	1792	7623
1	1757	7624
1	1721	7625
1	1682	7626
1	1634	7627
1	1590	7628
1	1554	7629
1	1531	7630
1	1533	7631
1	1546	7632
1	1571	7633
1	1625	7634
1	1686	7635
1	1744	7636
1	1780	7637
1	1798	7638
1	1803	7639
1	1827	7660
1	1849	7661
1	1855	7662
1	1837	7663
1	1815	7664
1	1775	7665
1	1733	7666
1	1686	7667
1	1657	7668
1	1621	7669
1	1594	7670
1	1581	7671
1	1586	7672
1	1607	7673
1	1636	7674
1	1674	7675
1	1707	7676
1	1738	7677
1	1764	7678
1	1796	7679
1	1856	7700
1	1857	7701
1	1847	7702
1	1826	7703
1	1791	7704
1	1754	7705
1	1716	7706
1	1684	7707
1	1647	7708
1	1623	7709
1	1608	7710
1	1607	7711
1	1624	7712
1	1655	7713
1	1688	7714
1	1733	7715
1	1773	7716
1	1814	7717
1	1840	7718
1	1866	7719
1	1827	7680
1	1843	7681
1	1843	7682
1	1836	7683
1	1817	7684
1	1789	7685
1	1755	7686
1	1720	7687
1	1683	7688
1	1645	7689
1	1616	7690
1	1594	7691
1	1592	7692
1	1610	7693
1	1644	7694
1	1684	7695
1	1718	7696
1	1760	7697
1	1809	7698
1	1842	7699
1	1887	7720
1	1896	7721
1	1895	7722
1	1872	7723
1	1846	7724
1	1815	7725
1	1778	7726
1	1749	7727
1	1728	7728
1	1703	7729
1	1688	7730
1	1682	7731
1	1689	7732
1	1711	7733
1	1737	7734
1	1789	7735
1	1856	7736
1	1920	7737
1	1977	7738
1	2021	7739
1	2042	7740
1	2039	7741
1	2004	7742
1	1951	7743
1	1884	7744
1	1811	7745
1	1741	7746
1	1683	7747
1	1620	7748
1	1578	7749
1	1552	7750
1	1541	7751
1	1553	7752
1	1576	7753
1	1620	7754
1	1671	7755
1	1724	7756
1	1769	7757
1	1823	7758
1	1859	7759
1	1895	7760
1	1921	7761
1	1926	7762
1	1914	7763
1	1886	7764
1	1856	7765
1	1817	7766
1	1775	7767
1	1724	7768
1	1675	7769
1	1638	7770
1	1619	7771
1	1611	7772
1	1621	7773
1	1630	7774
1	1638	7775
1	1659	7776
1	1686	7777
1	1724	7778
1	1753	7779
1	1773	7780
1	1779	7781
1	1769	7782
1	1747	7783
1	1719	7784
1	1686	7785
1	1645	7786
1	1603	7787
1	1569	7788
1	1542	7789
1	1529	7790
1	1525	7791
1	1539	7792
1	1564	7793
1	1607	7794
1	1661	7795
1	1733	7796
1	1809	7797
1	1856	7798
1	1890	7799
1	1899	7800
1	1891	7801
1	1865	7802
1	1829	7803
1	1770	7804
1	1708	7805
1	1641	7806
1	1575	7807
1	1508	7808
1	1449	7809
1	1413	7810
1	1403	7811
1	1424	7812
1	1458	7813
1	1515	7814
1	1580	7815
1	1641	7816
1	1699	7817
1	1763	7818
1	1800	7819
1	1744	7860
1	1749	7861
1	1736	7862
1	1713	7863
1	1679	7864
1	1634	7865
1	1589	7866
1	1555	7867
1	1530	7868
1	1528	7869
1	1546	7870
1	1592	7871
1	1660	7872
1	1748	7873
1	1863	7874
1	1993	7875
1	2131	7876
1	2271	7877
1	2410	7878
1	2523	7879
1	1827	7820
1	1842	7821
1	1837	7822
1	1817	7823
1	1781	7824
1	1738	7825
1	1688	7826
1	1638	7827
1	1586	7828
1	1551	7829
1	1529	7830
1	1517	7831
1	1519	7832
1	1543	7833
1	1569	7834
1	1611	7835
1	1660	7836
1	1708	7837
1	1751	7838
1	1766	7839
1	1777	7840
1	1766	7841
1	1750	7842
1	1723	7843
1	1692	7844
1	1657	7845
1	1618	7846
1	1580	7847
1	1543	7848
1	1510	7849
1	1490	7850
1	1484	7851
1	1497	7852
1	1516	7853
1	1546	7854
1	1582	7855
1	1625	7856
1	1664	7857
1	1698	7858
1	1725	7859
1	2623	7880
1	2709	7881
1	2779	7882
1	2836	7883
1	2875	7884
1	2894	7885
1	2904	7886
1	2914	7887
1	2917	7888
1	2923	7889
1	2930	7890
1	2930	7891
1	2929	7892
1	2926	7893
1	2915	7894
1	2892	7895
1	2861	7896
1	2818	7897
1	2766	7898
1	2706	7899
1	2650	7900
1	2588	7901
1	2520	7902
1	2431	7903
1	2324	7904
1	2206	7905
1	2100	7906
1	2005	7907
1	1935	7908
1	1873	7909
1	1830	7910
1	1791	7911
1	1769	7912
1	1764	7913
1	1764	7914
1	1776	7915
1	1788	7916
1	1796	7917
1	1797	7918
1	1796	7919
1	1789	7920
1	1764	7921
1	1723	7922
1	1669	7923
1	1598	7924
1	1523	7925
1	1440	7926
1	1362	7927
1	1296	7928
1	1242	7929
1	1201	7930
1	1175	7931
1	1162	7932
1	1170	7933
1	1197	7934
1	1242	7935
1	1303	7936
1	1372	7937
1	1445	7938
1	1503	7939
1	1553	7940
1	1592	7941
1	1616	7942
1	1628	7943
1	1621	7944
1	1607	7945
1	1584	7946
1	1562	7947
1	1535	7948
1	1512	7949
1	1499	7950
1	1482	7951
1	1477	7952
1	1489	7953
1	1508	7954
1	1528	7955
1	1550	7956
1	1569	7957
1	1586	7958
1	1605	7959
1	1626	7960
1	1641	7961
1	1646	7962
1	1628	7963
1	1600	7964
1	1569	7965
1	1535	7966
1	1499	7967
1	1474	7968
1	1452	7969
1	1445	7970
1	1442	7971
1	1450	7972
1	1471	7973
1	1499	7974
1	1536	7975
1	1581	7976
1	1634	7977
1	1671	7978
1	1703	7979
1	1718	7980
1	1721	7981
1	1707	7982
1	1686	7983
1	1657	7984
1	1620	7985
1	1581	7986
1	1542	7987
1	1503	7988
1	1472	7989
1	1446	7990
1	1431	7991
1	1432	7992
1	1459	7993
1	1503	7994
1	1553	7995
1	1598	7996
1	1634	7997
1	1668	7998
1	1695	7999
1	1716	8000
1	1737	8000
1	1744	8002
1	1746	8003
1	1740	8004
1	1724	8005
1	1704	8006
1	1677	8007
1	1634	8008
1	1602	8009
1	1573	8010
1	1554	8011
1	1545	8012
1	1555	8013
1	1569	8013
1	1594	8015
1	1625	8016
1	1660	8016
1	1690	8018
1	1716	8019
1	1700	8040
1	1721	8041
1	1734	8042
1	1741	8043
1	1734	8044
1	1723	8045
1	1716	8045
1	1715	8047
1	1697	8048
1	1661	8048
1	1625	8050
1	1593	8051
1	1571	8052
1	1553	8053
1	1548	8054
1	1553	8055
1	1569	8056
1	1595	8057
1	1634	8058
1	1671	8059
1	1737	8020
1	1746	8021
1	1745	8022
1	1715	8023
1	1676	8024
1	1625	8025
1	1579	8026
1	1537	8027
1	1515	8028
1	1503	8029
1	1495	8029
1	1499	8031
1	1508	8032
1	1535	8032
1	1556	8034
1	1593	8035
1	1623	8036
1	1646	8037
1	1664	8038
1	1684	8039
1	1877	8080
1	1895	8080
1	1896	8082
1	1875	8083
1	1845	8084
1	1798	8085
1	1749	8086
1	1698	8087
1	1656	8088
1	1619	8089
1	1593	8090
1	1581	8090
1	1581	8092
1	1600	8093
1	1634	8093
1	1676	8095
1	1724	8096
1	1773	8096
1	1818	8098
1	1859	8099
1	1701	8060
1	1729	8061
1	1744	8061
1	1749	8063
1	1737	8064
1	1712	8064
1	1682	8066
1	1647	8067
1	1608	8068
1	1584	8069
1	1563	8070
1	1550	8071
1	1551	8072
1	1570	8073
1	1597	8074
1	1641	8074
1	1698	8076
1	1758	8077
1	1816	8077
1	1854	8079
1	1890	8100
1	1905	8101
1	1907	8102
1	1904	8103
1	1880	8104
1	1842	8105
1	1791	8106
1	1739	8106
1	1696	8108
1	1660	8109
1	1635	8109
1	1620	8111
1	1622	8112
1	1633	8113
1	1661	8114
1	1700	8115
1	1744	8116
1	1791	8117
1	1843	8118
1	1877	8119
1	1895	8120
1	1891	8121
1	1869	8122
1	1836	8122
1	1791	8124
1	1749	8125
1	1708	8125
1	1672	8127
1	1641	8128
1	1631	8129
1	1629	8130
1	1636	8131
1	1660	8132
1	1693	8133
1	1728	8134
1	1755	8135
1	1791	8136
1	1823	8137
1	1854	8138
1	1873	8138
1	1898	8140
1	1913	8141
1	1922	8141
1	1922	8143
1	1913	8144
1	1895	8145
1	1869	8146
1	1837	8147
1	1791	8148
1	1759	8149
1	1734	8150
1	1717	8151
1	1717	8152
1	1724	8153
1	1738	8154
1	1755	8154
1	1769	8156
1	1789	8157
1	1800	8157
1	1818	8159
1	1827	8160
1	1824	8161
1	1817	8162
1	1795	8163
1	1764	8164
1	1727	8165
1	1687	8166
1	1656	8167
1	1625	8168
1	1597	8169
1	1581	8170
1	1576	8170
1	1589	8172
1	1610	8173
1	1645	8173
1	1682	8175
1	1723	8176
1	1764	8177
1	1811	8178
1	1847	8179
1	1870	8180
1	1885	8181
1	1881	8182
1	1862	8183
1	1822	8184
1	1769	8185
1	1715	8186
1	1661	8186
1	1616	8188
1	1582	8189
1	1557	8189
1	1542	8191
1	1539	8192
1	1555	8193
1	1581	8194
1	1610	8195
1	1644	8196
1	1684	8197
1	1718	8198
1	1751	8199
1	1770	8200
1	1780	8201
1	1778	8202
1	1755	8203
1	1728	8204
1	1688	8205
1	1648	8206
1	1616	8207
1	1594	8208
1	1564	8209
1	1546	8210
1	1545	8211
1	1557	8212
1	1590	8213
1	1632	8214
1	1679	8215
1	1728	8216
1	1769	8217
1	1796	8218
1	1817	8219
1	1816	8220
1	1790	8221
1	1749	8222
1	1700	8223
1	1642	8224
1	1581	8225
1	1529	8226
1	1479	8227
1	1438	8228
1	1412	8229
1	1398	8230
1	1393	8231
1	1409	8232
1	1434	8233
1	1476	8234
1	1530	8235
1	1585	8236
1	1634	8237
1	1674	8238
1	1701	8239
1	1756	8260
1	1759	8261
1	1749	8262
1	1716	8263
1	1678	8264
1	1636	8265
1	1592	8266
1	1550	8267
1	1525	8268
1	1500	8269
1	1484	8270
1	1477	8271
1	1489	8272
1	1516	8273
1	1557	8274
1	1607	8275
1	1645	8276
1	1670	8277
1	1686	8278
1	1701	8279
1	1724	8240
1	1740	8241
1	1746	8242
1	1724	8243
1	1688	8244
1	1648	8245
1	1611	8246
1	1577	8247
1	1538	8248
1	1510	8249
1	1498	8250
1	1501	8251
1	1521	8252
1	1555	8253
1	1590	8254
1	1625	8255
1	1661	8256
1	1699	8257
1	1727	8258
1	1746	8259
1	1721	8280
1	1738	8281
1	1736	8282
1	1716	8283
1	1674	8284
1	1629	8285
1	1582	8286
1	1539	8287
1	1494	8288
1	1451	8289
1	1424	8290
1	1398	8291
1	1395	8292
1	1401	8293
1	1427	8294
1	1466	8295
1	1507	8296
1	1553	8297
1	1598	8298
1	1638	8299
1	1670	8300
1	1686	8301
1	1683	8302
1	1670	8303
1	1652	8304
1	1626	8305
1	1595	8306
1	1564	8307
1	1529	8308
1	1502	8309
1	1484	8310
1	1482	8311
1	1500	8312
1	1542	8313
1	1581	8314
1	1617	8315
1	1644	8316
1	1673	8317
1	1694	8318
1	1706	8319
1	1712	8320
1	1713	8321
1	1704	8322
1	1678	8323
1	1647	8324
1	1610	8325
1	1567	8326
1	1517	8327
1	1472	8328
1	1429	8329
1	1409	8330
1	1404	8331
1	1409	8332
1	1424	8333
1	1446	8334
1	1485	8335
1	1528	8336
1	1569	8337
1	1613	8338
1	1656	8339
1	1692	8340
1	1717	8341
1	1718	8342
1	1699	8343
1	1659	8344
1	1612	8345
1	1556	8346
1	1503	8347
1	1450	8348
1	1412	8349
1	1391	8350
1	1383	8351
1	1404	8352
1	1440	8353
1	1499	8354
1	1561	8355
1	1626	8356
1	1683	8357
1	1731	8358
1	1770	8359
1	1816	8360
1	1836	8361
1	1837	8362
1	1815	8363
1	1779	8364
1	1738	8365
1	1694	8366
1	1657	8367
1	1617	8368
1	1582	8369
1	1548	8370
1	1517	8371
1	1503	8372
1	1511	8373
1	1528	8374
1	1554	8375
1	1590	8376
1	1632	8377
1	1667	8378
1	1697	8379
1	1778	8400
1	1796	8401
1	1802	8402
1	1803	8403
1	1791	8404
1	1773	8405
1	1754	8406
1	1733	8407
1	1704	8408
1	1677	8409
1	1647	8410
1	1633	8411
1	1621	8412
1	1623	8413
1	1632	8414
1	1655	8415
1	1687	8416
1	1731	8417
1	1772	8418
1	1794	8419
1	1714	8380
1	1727	8381
1	1720	8382
1	1702	8383
1	1683	8384
1	1650	8385
1	1616	8386
1	1580	8387
1	1548	8388
1	1528	8389
1	1518	8390
1	1514	8391
1	1530	8392
1	1550	8393
1	1573	8394
1	1607	8395
1	1639	8396
1	1679	8397
1	1712	8398
1	1747	8399
1	1803	8420
1	1808	8421
1	1809	8422
1	1807	8423
1	1791	8424
1	1773	8425
1	1746	8426
1	1710	8427
1	1664	8428
1	1629	8429
1	1602	8430
1	1581	8431
1	1566	8432
1	1571	8433
1	1577	8434
1	1602	8435
1	1634	8436
1	1666	8437
1	1701	8438
1	1717	8439
1	1728	8440
1	1723	8441
1	1708	8442
1	1686	8443
1	1657	8444
1	1620	8445
1	1580	8446
1	1535	8447
1	1488	8448
1	1446	8449
1	1415	8450
1	1413	8451
1	1430	8452
1	1451	8453
1	1481	8454
1	1525	8455
1	1578	8456
1	1629	8457
1	1665	8458
1	1699	8459
1	1726	8460
1	1740	8461
1	1738	8462
1	1734	8463
1	1711	8464
1	1677	8465
1	1639	8466
1	1611	8467
1	1590	8468
1	1569	8469
1	1547	8470
1	1537	8471
1	1535	8472
1	1536	8473
1	1548	8474
1	1557	8475
1	1568	8476
1	1577	8477
1	1592	8478
1	1597	8479
1	1607	8480
1	1616	8481
1	1620	8482
1	1615	8483
1	1598	8484
1	1572	8485
1	1533	8486
1	1487	8487
1	1442	8488
1	1415	8489
1	1404	8490
1	1409	8491
1	1430	8492
1	1472	8493
1	1521	8494
1	1582	8495
1	1647	8496
1	1700	8497
1	1738	8498
1	1751	8499
1	1738	8500
1	1707	8501
1	1669	8502
1	1621	8503
1	1573	8504
1	1526	8505
1	1487	8506
1	1455	8507
1	1438	8508
1	1420	8509
1	1415	8510
1	1423	8511
1	1435	8512
1	1458	8513
1	1494	8514
1	1542	8515
1	1586	8516
1	1629	8517
1	1652	8518
1	1663	8519
1	1664	8520
1	1657	8521
1	1634	8522
1	1603	8523
1	1557	8524
1	1505	8525
1	1463	8526
1	1425	8527
1	1394	8528
1	1367	8529
1	1358	8530
1	1367	8531
1	1384	8532
1	1413	8533
1	1450	8534
1	1495	8535
1	1536	8536
1	1574	8537
1	1600	8538
1	1611	8539
1	1620	8540
1	1621	8541
1	1615	8542
1	1606	8543
1	1595	8544
1	1581	8545
1	1559	8546
1	1538	8547
1	1511	8548
1	1497	8549
1	1502	8550
1	1530	8551
1	1585	8552
1	1673	8553
1	1769	8554
1	1874	8555
1	1985	8556
1	2097	8557
1	2209	8558
1	2315	8559
1	2415	8560
1	2495	8561
1	2550	8562
1	2593	8563
1	2632	8564
1	2660	8565
1	2689	8566
1	2712	8567
1	2735	8568
1	2753	8569
1	2778	8570
1	2807	8571
1	2839	8572
1	2862	8573
1	2884	8574
1	2896	8575
1	2899	8576
1	2880	8577
1	2837	8578
1	2773	8579
1	2696	8580
1	2605	8581
1	2515	8582
1	2404	8583
1	2290	8584
1	2178	8585
1	2075	8586
1	1970	8587
1	1871	8588
1	1778	8589
1	1703	8590
1	1639	8591
1	1606	8592
1	1598	8593
1	1613	8594
1	1655	8595
1	1701	8596
1	1738	8597
1	1769	8598
1	1777	8599
1	1763	8600
1	1731	8601
1	1679	8602
1	1607	8603
1	1520	8604
1	1430	8605
1	1337	8606
1	1265	8607
1	1200	8608
1	1160	8609
1	1136	8610
1	1131	8611
1	1136	8612
1	1161	8613
1	1184	8614
1	1215	8615
1	1256	8616
1	1307	8617
1	1359	8618
1	1403	8619
1	1435	8620
1	1450	8621
1	1450	8622
1	1436	8623
1	1418	8624
1	1398	8625
1	1372	8626
1	1356	8627
1	1341	8628
1	1328	8629
1	1323	8630
1	1332	8631
1	1350	8632
1	1372	8633
1	1392	8634
1	1417	8635
1	1449	8636
1	1476	8637
1	1502	8638
1	1512	8639
1	1512	8640
1	1503	8641
1	1490	8642
1	1474	8643
1	1452	8644
1	1424	8645
1	1404	8646
1	1384	8647
1	1358	8648
1	1342	8649
1	1330	8650
1	1320	8651
1	1320	8652
1	1332	8653
1	1356	8654
1	1394	8655
1	1433	8656
1	1482	8657
1	1533	8658
1	1568	8659
1	1589	8660
1	1600	8661
1	1606	8662
1	1599	8663
1	1580	8664
1	1541	8665
1	1493	8666
1	1449	8667
1	1397	8668
1	1346	8669
1	1306	8670
1	1271	8671
1	1254	8672
1	1252	8673
1	1268	8674
1	1303	8675
1	1350	8676
1	1422	8677
1	1490	8678
1	1555	8679
1	1608	8680
1	1651	8681
1	1677	8682
1	1679	8683
1	1664	8684
1	1639	8685
1	1607	8686
1	1579	8687
1	1548	8688
1	1528	8689
1	1515	8690
1	1508	8691
1	1517	8692
1	1524	8693
1	1530	8694
1	1544	8695
1	1563	8696
1	1583	8697
1	1599	8698
1	1612	8699
1	1612	8700
1	1602	8701
1	1576	8702
1	1539	8703
1	1492	8704
1	1449	8705
1	1411	8706
1	1377	8707
1	1351	8708
1	1332	8709
1	1323	8710
1	1332	8711
1	1351	8712
1	1392	8713
1	1435	8714
1	1482	8715
1	1530	8716
1	1572	8717
1	1611	8718
1	1638	8719
1	1656	8720
1	1660	8721
1	1648	8722
1	1621	8723
1	1582	8724
1	1538	8725
1	1500	8726
1	1463	8727
1	1427	8728
1	1400	8729
1	1377	8730
1	1372	8731
1	1379	8732
1	1404	8733
1	1425	8734
1	1464	8735
1	1505	8736
1	1550	8737
1	1593	8738
1	1620	8739
1	1743	8760
1	1755	8761
1	1751	8762
1	1742	8763
1	1724	8764
1	1701	8765
1	1674	8766
1	1643	8767
1	1601	8768
1	1557	8769
1	1524	8770
1	1502	8771
1	1499	8772
1	1503	8773
1	1521	8774
1	1556	8775
1	1598	8776
1	1639	8777
1	1674	8778
1	1701	8779
1	1644	8740
1	1658	8741
1	1660	8742
1	1654	8743
1	1633	8744
1	1593	8745
1	1550	8746
1	1510	8747
1	1476	8748
1	1451	8749
1	1442	8750
1	1451	8751
1	1480	8752
1	1507	8753
1	1537	8754
1	1568	8755
1	1600	8756
1	1636	8757
1	1675	8758
1	1715	8759
1	1712	8780
1	1716	8781
1	1711	8782
1	1697	8783
1	1662	8784
1	1624	8785
1	1579	8786
1	1542	8787
1	1508	8788
1	1499	8789
1	1514	8790
1	1541	8791
1	1581	8792
1	1638	8793
1	1693	8794
1	1746	8795
1	1791	8796
1	1829	8797
1	1856	8798
1	1869	8799
1	1870	8800
1	1862	8801
1	1841	8802
1	1792	8803
1	1746	8804
1	1691	8805
1	1637	8806
1	1592	8807
1	1557	8808
1	1526	8809
1	1503	8810
1	1495	8811
1	1511	8812
1	1544	8813
1	1585	8814
1	1631	8815
1	1683	8816
1	1734	8817
1	1769	8818
1	1809	8819
1	1837	8820
1	1847	8821
1	1845	8822
1	1839	8823
1	1809	8824
1	1762	8825
1	1710	8826
1	1660	8827
1	1615	8828
1	1585	8829
1	1569	8830
1	1564	8831
1	1572	8832
1	1584	8833
1	1610	8834
1	1647	8835
1	1691	8836
1	1738	8837
1	1770	8838
1	1791	8839
1	1796	8840
1	1787	8841
1	1775	8842
1	1747	8843
1	1716	8844
1	1679	8845
1	1636	8846
1	1599	8847
1	1560	8848
1	1535	8849
1	1528	8850
1	1539	8851
1	1566	8852
1	1599	8853
1	1626	8854
1	1657	8855
1	1683	8856
1	1717	8857
1	1753	8858
1	1773	8859
1	1777	8860
1	1767	8861
1	1744	8862
1	1699	8863
1	1643	8864
1	1585	8865
1	1531	8866
1	1490	8867
1	1450	8868
1	1417	8869
1	1397	8870
1	1395	8871
1	1408	8872
1	1437	8873
1	1477	8874
1	1527	8875
1	1581	8876
1	1632	8877
1	1665	8878
1	1688	8879
1	1698	8880
1	1691	8881
1	1677	8882
1	1651	8883
1	1613	8884
1	1572	8885
1	1528	8886
1	1478	8887
1	1435	8888
1	1407	8889
1	1398	8890
1	1410	8891
1	1430	8892
1	1462	8893
1	1502	8894
1	1547	8895
1	1594	8896
1	1656	8897
1	1699	8898
1	1726	8899
1	1738	8900
1	1734	8901
1	1712	8902
1	1683	8903
1	1638	8904
1	1593	8905
1	1545	8906
1	1503	8907
1	1463	8908
1	1427	8909
1	1402	8910
1	1395	8911
1	1407	8912
1	1437	8913
1	1477	8914
1	1529	8915
1	1572	8916
1	1606	8917
1	1633	8918
1	1646	8919
1	1649	8940
1	1669	8941
1	1675	8942
1	1665	8943
1	1641	8944
1	1603	8945
1	1564	8946
1	1518	8947
1	1468	8948
1	1425	8949
1	1402	8950
1	1399	8951
1	1414	8952
1	1436	8953
1	1458	8954
1	1484	8955
1	1507	8956
1	1536	8957
1	1568	8958
1	1588	8959
1	1652	8920
1	1643	8921
1	1621	8922
1	1588	8923
1	1552	8924
1	1511	8925
1	1469	8926
1	1440	8927
1	1415	8928
1	1398	8929
1	1391	8930
1	1390	8931
1	1398	8932
1	1418	8933
1	1437	8934
1	1462	8935
1	1493	8936
1	1529	8937
1	1574	8938
1	1616	8939
1	1595	8960
1	1597	8961
1	1584	8962
1	1557	8963
1	1533	8964
1	1505	8965
1	1485	8966
1	1465	8967
1	1449	8968
1	1441	8969
1	1448	8970
1	1452	8971
1	1473	8972
1	1494	8973
1	1523	8974
1	1555	8975
1	1582	8976
1	1602	8977
1	1615	8978
1	1623	8979
1	1670	9000
1	1681	9001
1	1679	9002
1	1665	9003
1	1646	9004
1	1607	9005
1	1559	9006
1	1516	9007
1	1476	9008
1	1436	9009
1	1399	9010
1	1372	9011
1	1362	9012
1	1356	9013
1	1376	9014
1	1418	9015
1	1456	9016
1	1499	9017
1	1536	9018
1	1566	9019
1	1629	8980
1	1625	8981
1	1610	8982
1	1580	8983
1	1536	8984
1	1484	8985
1	1429	8986
1	1382	8987
1	1344	8988
1	1319	8989
1	1306	8990
1	1312	8991
1	1332	8992
1	1372	8993
1	1424	8994
1	1487	8995
1	1545	8996
1	1592	8997
1	1618	8998
1	1646	8999
1	1580	9020
1	1593	9021
1	1601	9022
1	1589	9023
1	1564	9024
1	1533	9025
1	1503	9026
1	1472	9027
1	1437	9028
1	1424	9029
1	1420	9030
1	1425	9031
1	1440	9032
1	1474	9033
1	1505	9034
1	1539	9035
1	1577	9036
1	1610	9037
1	1638	9038
1	1661	9039
1	1672	9040
1	1669	9041
1	1656	9042
1	1634	9043
1	1596	9044
1	1546	9045
1	1493	9046
1	1445	9047
1	1410	9048
1	1384	9049
1	1384	9050
1	1398	9051
1	1415	9052
1	1437	9053
1	1465	9054
1	1502	9055
1	1539	9056
1	1580	9057
1	1609	9058
1	1635	9059
1	1649	9060
1	1647	9061
1	1634	9062
1	1608	9063
1	1581	9064
1	1548	9065
1	1508	9066
1	1472	9067
1	1441	9068
1	1425	9069
1	1424	9070
1	1437	9071
1	1471	9072
1	1508	9073
1	1566	9074
1	1629	9075
1	1686	9076
1	1735	9077
1	1770	9078
1	1785	9079
1	1785	9080
1	1770	9081
1	1744	9082
1	1712	9083
1	1670	9084
1	1631	9085
1	1595	9086
1	1571	9087
1	1553	9088
1	1544	9089
1	1545	9090
1	1555	9091
1	1581	9092
1	1610	9093
1	1646	9094
1	1683	9095
1	1714	9096
1	1738	9097
1	1751	9098
1	1753	9099
1	1751	9100
1	1738	9101
1	1711	9102
1	1665	9103
1	1625	9104
1	1584	9105
1	1542	9106
1	1502	9107
1	1467	9108
1	1452	9109
1	1454	9110
1	1476	9111
1	1517	9112
1	1567	9113
1	1620	9114
1	1675	9115
1	1725	9116
1	1768	9117
1	1803	9118
1	1837	9119
1	1843	9120
1	1826	9121
1	1791	9122
1	1735	9123
1	1664	9124
1	1593	9125
1	1521	9126
1	1459	9127
1	1413	9128
1	1379	9129
1	1370	9130
1	1375	9131
1	1407	9132
1	1440	9133
1	1485	9134
1	1538	9135
1	1587	9136
1	1634	9137
1	1677	9138
1	1706	9139
1	1727	9140
1	1716	9141
1	1690	9142
1	1647	9143
1	1590	9144
1	1530	9145
1	1479	9146
1	1438	9147
1	1405	9148
1	1372	9149
1	1350	9150
1	1346	9151
1	1354	9152
1	1376	9153
1	1417	9154
1	1450	9155
1	1486	9156
1	1525	9157
1	1561	9158
1	1598	9159
1	1716	9180
1	1715	9181
1	1704	9182
1	1670	9183
1	1625	9184
1	1569	9185
1	1508	9186
1	1451	9187
1	1398	9188
1	1349	9189
1	1332	9190
1	1344	9191
1	1373	9192
1	1422	9193
1	1467	9194
1	1517	9195
1	1563	9196
1	1607	9197
1	1638	9198
1	1660	9199
1	1670	9200
1	1669	9201
1	1656	9202
1	1629	9203
1	1589	9204
1	1541	9205
1	1490	9206
1	1449	9207
1	1409	9208
1	1377	9209
1	1372	9210
1	1372	9211
1	1398	9212
1	1423	9213
1	1449	9214
1	1476	9215
1	1501	9216
1	1520	9217
1	1531	9218
1	1538	9219
1	1625	9180
1	1638	9181
1	1639	9182
1	1620	9183
1	1589	9184
1	1550	9185
1	1504	9186
1	1463	9187
1	1436	9188
1	1413	9189
1	1401	9190
1	1398	9191
1	1408	9192
1	1435	9193
1	1473	9194
1	1521	9195
1	1572	9196
1	1623	9197
1	1665	9198
1	1699	9199
1	1541	9220
1	1539	9221
1	1521	9222
1	1484	9223
1	1443	9224
1	1406	9225
1	1368	9226
1	1346	9227
1	1332	9228
1	1328	9229
1	1344	9230
1	1373	9231
1	1430	9232
1	1500	9233
1	1577	9234
1	1664	9235
1	1754	9236
1	1843	9237
1	1921	9238
1	2000	9239
1	2080	9240
1	2159	9241
1	2236	9242
1	2288	9243
1	2325	9244
1	2351	9245
1	2382	9246
1	2417	9247
1	2450	9248
1	2485	9249
1	2519	9250
1	2566	9251
1	2623	9252
1	2687	9253
1	2764	9254
1	2833	9255
1	2878	9256
1	2916	9257
1	2922	9258
1	2895	9259
1	1764	9280
1	1746	9281
1	1712	9282
1	1661	9283
1	1604	9284
1	1533	9285
1	1458	9286
1	1381	9287
1	1305	9288
1	1238	9289
1	1178	9290
1	1136	9291
1	1112	9292
1	1114	9293
1	1134	9294
1	1161	9295
1	1202	9296
1	1251	9297
1	1294	9298
1	1336	9299
1	2844	9260
1	2765	9261
1	2681	9262
1	2586	9263
1	2496	9264
1	2377	9265
1	2250	9266
1	2120	9267
1	2000	9268
1	1916	9269
1	1850	9270
1	1791	9271
1	1760	9272
1	1736	9273
1	1721	9274
1	1720	9275
1	1729	9276
1	1748	9277
1	1764	9278
1	1772	9279
1	1358	9300
1	1368	9301
1	1372	9302
1	1370	9303
1	1366	9304
1	1346	9305
1	1319	9306
1	1292	9307
1	1266	9308
1	1245	9309
1	1229	9310
1	1219	9311
1	1225	9312
1	1241	9313
1	1269	9314
1	1314	9315
1	1364	9316
1	1427	9317
1	1479	9318
1	1526	9319
1	1562	9320
1	1580	9321
1	1577	9322
1	1560	9323
1	1535	9324
1	1499	9325
1	1458	9326
1	1417	9327
1	1369	9328
1	1338	9329
1	1323	9330
1	1320	9331
1	1337	9332
1	1369	9333
1	1406	9334
1	1450	9335
1	1489	9336
1	1515	9337
1	1533	9338
1	1534	9339
1	1607	9360
1	1620	9361
1	1621	9362
1	1613	9363
1	1594	9364
1	1565	9365
1	1530	9366
1	1494	9367
1	1448	9368
1	1413	9369
1	1384	9370
1	1375	9371
1	1380	9372
1	1398	9373
1	1424	9374
1	1466	9375
1	1521	9376
1	1576	9377
1	1621	9378
1	1645	9379
1	1534	9340
1	1538	9341
1	1534	9342
1	1530	9343
1	1526	9344
1	1512	9345
1	1489	9346
1	1475	9347
1	1451	9348
1	1441	9349
1	1437	9350
1	1439	9351
1	1448	9352
1	1460	9353
1	1476	9354
1	1500	9355
1	1528	9356
1	1555	9357
1	1571	9358
1	1592	9359
1	1659	9380
1	1665	9381
1	1664	9382
1	1656	9383
1	1633	9384
1	1595	9385
1	1557	9386
1	1526	9387
1	1494	9388
1	1475	9389
1	1460	9390
1	1454	9391
1	1474	9392
1	1503	9393
1	1546	9394
1	1595	9395
1	1639	9396
1	1675	9397
1	1703	9398
1	1723	9399
1	1724	9400
1	1710	9401
1	1677	9402
1	1634	9403
1	1587	9404
1	1535	9405
1	1481	9406
1	1442	9407
1	1417	9408
1	1406	9409
1	1407	9410
1	1406	9411
1	1412	9412
1	1423	9413
1	1440	9414
1	1474	9415
1	1507	9416
1	1542	9417
1	1574	9418
1	1607	9419
1	1626	9420
1	1633	9421
1	1631	9422
1	1613	9423
1	1597	9424
1	1581	9425
1	1563	9426
1	1553	9427
1	1541	9428
1	1529	9429
1	1517	9430
1	1523	9431
1	1538	9432
1	1557	9433
1	1594	9434
1	1635	9435
1	1672	9436
1	1712	9437
1	1747	9438
1	1765	9439
1	1778	9440
1	1767	9441
1	1751	9442
1	1727	9443
1	1701	9444
1	1670	9445
1	1634	9446
1	1596	9447
1	1573	9448
1	1555	9449
1	1551	9450
1	1556	9451
1	1582	9452
1	1628	9453
1	1681	9454
1	1726	9455
1	1769	9456
1	1817	9457
1	1856	9458
1	1874	9459
1	1871	9460
1	1852	9461
1	1817	9462
1	1765	9463
1	1720	9464
1	1672	9465
1	1618	9466
1	1566	9467
1	1531	9468
1	1508	9469
1	1501	9470
1	1502	9471
1	1513	9472
1	1535	9473
1	1559	9474
1	1585	9475
1	1611	9476
1	1648	9477
1	1686	9478
1	1729	9479
1	1767	9480
1	1796	9481
1	1814	9482
1	1799	9483
1	1780	9484
1	1751	9485
1	1720	9486
1	1685	9487
1	1647	9488
1	1618	9489
1	1597	9490
1	1586	9491
1	1590	9492
1	1602	9493
1	1634	9494
1	1682	9495
1	1725	9496
1	1769	9497
1	1808	9498
1	1838	9499
1	1854	9500
1	1848	9501
1	1834	9502
1	1803	9503
1	1765	9504
1	1721	9505
1	1682	9506
1	1652	9507
1	1623	9508
1	1607	9509
1	1607	9510
1	1618	9511
1	1648	9512
1	1685	9513
1	1721	9514
1	1764	9515
1	1809	9516
1	1845	9517
1	1869	9518
1	1879	9519
1	1875	9520
1	1864	9521
1	1839	9522
1	1795	9523
1	1754	9524
1	1712	9525
1	1671	9526
1	1641	9527
1	1616	9528
1	1607	9529
1	1605	9530
1	1607	9531
1	1616	9532
1	1642	9533
1	1660	9534
1	1686	9535
1	1711	9536
1	1734	9537
1	1750	9538
1	1757	9539
1	1752	9540
1	1740	9541
1	1719	9542
1	1687	9543
1	1651	9544
1	1612	9545
1	1581	9546
1	1555	9547
1	1524	9548
1	1502	9549
1	1490	9550
1	1494	9551
1	1506	9552
1	1522	9553
1	1543	9554
1	1576	9555
1	1607	9556
1	1646	9557
1	1686	9558
1	1711	9559
1	1718	9560
1	1715	9561
1	1701	9562
1	1674	9563
1	1637	9564
1	1589	9565
1	1544	9566
1	1494	9567
1	1445	9568
1	1402	9569
1	1372	9570
1	1356	9571
1	1361	9572
1	1384	9573
1	1424	9574
1	1476	9575
1	1533	9576
1	1596	9577
1	1645	9578
1	1679	9579
1	1694	9580
1	1694	9581
1	1683	9582
1	1660	9583
1	1629	9584
1	1587	9585
1	1539	9586
1	1503	9587
1	1480	9588
1	1465	9589
1	1458	9590
1	1467	9591
1	1490	9592
1	1525	9593
1	1557	9594
1	1602	9595
1	1647	9596
1	1693	9597
1	1723	9598
1	1738	9599
1	1737	9600
1	1714	9601
1	1687	9602
1	1646	9603
1	1598	9604
1	1553	9605
1	1505	9606
1	1466	9607
1	1436	9608
1	1414	9609
1	1409	9610
1	1418	9611
1	1437	9612
1	1462	9613
1	1499	9614
1	1535	9615
1	1575	9616
1	1616	9617
1	1651	9618
1	1677	9619
1	1692	9620
1	1698	9621
1	1686	9622
1	1661	9623
1	1622	9624
1	1574	9625
1	1520	9626
1	1471	9627
1	1423	9628
1	1381	9629
1	1355	9630
1	1344	9631
1	1350	9632
1	1382	9633
1	1419	9634
1	1472	9635
1	1515	9636
1	1572	9637
1	1619	9638
1	1644	9639
1	1657	9640
1	1657	9641
1	1644	9642
1	1623	9643
1	1594	9644
1	1557	9645
1	1517	9646
1	1474	9647
1	1429	9648
1	1394	9649
1	1358	9650
1	1349	9651
1	1358	9652
1	1382	9653
1	1426	9654
1	1476	9655
1	1528	9656
1	1572	9657
1	1600	9658
1	1621	9659
1	1638	9660
1	1651	9661
1	1652	9662
1	1642	9663
1	1609	9664
1	1572	9665
1	1537	9666
1	1505	9667
1	1485	9668
1	1476	9669
1	1471	9670
1	1465	9671
1	1476	9672
1	1497	9673
1	1530	9674
1	1574	9675
1	1615	9676
1	1658	9677
1	1686	9678
1	1704	9679
1	1705	9680
1	1693	9681
1	1669	9682
1	1634	9683
1	1592	9684
1	1543	9685
1	1497	9686
1	1450	9687
1	1409	9688
1	1373	9689
1	1355	9690
1	1346	9691
1	1356	9692
1	1372	9693
1	1402	9694
1	1448	9695
1	1499	9696
1	1553	9697
1	1607	9698
1	1644	9699
1	1669	9700
1	1686	9701
1	1689	9702
1	1678	9703
1	1657	9704
1	1626	9705
1	1586	9706
1	1548	9707
1	1503	9708
1	1456	9709
1	1425	9710
1	1408	9711
1	1409	9712
1	1422	9713
1	1437	9714
1	1464	9715
1	1499	9716
1	1530	9717
1	1558	9718
1	1584	9719
1	1598	9720
1	1605	9721
1	1608	9722
1	1603	9723
1	1589	9724
1	1570	9725
1	1555	9726
1	1541	9727
1	1524	9728
1	1503	9729
1	1485	9730
1	1472	9731
1	1474	9732
1	1487	9733
1	1511	9734
1	1550	9735
1	1591	9736
1	1625	9737
1	1655	9738
1	1670	9739
1	1678	9740
1	1681	9741
1	1662	9742
1	1633	9743
1	1592	9744
1	1546	9745
1	1507	9746
1	1475	9747
1	1439	9748
1	1422	9749
1	1419	9750
1	1425	9751
1	1455	9752
1	1512	9753
1	1562	9754
1	1611	9755
1	1661	9756
1	1706	9757
1	1744	9758
1	1767	9759
1	1775	9760
1	1765	9761
1	1747	9762
1	1706	9763
1	1661	9764
1	1616	9765
1	1575	9766
1	1541	9767
1	1527	9768
1	1513	9769
1	1514	9770
1	1524	9771
1	1543	9772
1	1575	9773
1	1611	9774
1	1651	9775
1	1686	9776
1	1718	9777
1	1742	9778
1	1760	9779
1	1764	9780
1	1751	9781
1	1734	9782
1	1709	9783
1	1680	9784
1	1650	9785
1	1618	9786
1	1589	9787
1	1566	9788
1	1555	9789
1	1557	9790
1	1569	9791
1	1596	9792
1	1634	9793
1	1677	9794
1	1726	9795
1	1768	9796
1	1809	9797
1	1839	9798
1	1850	9799
1	1850	9800
1	1832	9801
1	1791	9802
1	1738	9803
1	1685	9804
1	1623	9805
1	1564	9806
1	1514	9807
1	1474	9808
1	1449	9809
1	1440	9810
1	1443	9811
1	1462	9812
1	1500	9813
1	1543	9814
1	1599	9815
1	1656	9816
1	1708	9817
1	1747	9818
1	1770	9819
1	1781	9820
1	1778	9821
1	1762	9822
1	1734	9823
1	1703	9824
1	1668	9825
1	1631	9826
1	1607	9827
1	1584	9828
1	1561	9829
1	1541	9830
1	1527	9831
1	1533	9832
1	1551	9833
1	1566	9834
1	1590	9835
1	1613	9836
1	1647	9837
1	1681	9838
1	1701	9839
1	1755	9860
1	1773	9861
1	1764	9862
1	1737	9863
1	1690	9864
1	1634	9865
1	1581	9866
1	1528	9867
1	1476	9868
1	1446	9869
1	1420	9870
1	1398	9871
1	1402	9872
1	1427	9873
1	1473	9874
1	1528	9875
1	1574	9876
1	1607	9877
1	1635	9878
1	1659	9879
1	1669	9880
1	1661	9881
1	1639	9882
1	1600	9883
1	1556	9884
1	1512	9885
1	1474	9886
1	1446	9887
1	1424	9888
1	1409	9889
1	1401	9890
1	1410	9891
1	1424	9892
1	1445	9893
1	1476	9894
1	1515	9895
1	1562	9896
1	1607	9897
1	1649	9898
1	1682	9899
1	1707	9840
1	1697	9841
1	1668	9842
1	1633	9843
1	1597	9844
1	1558	9845
1	1530	9846
1	1500	9847
1	1463	9848
1	1433	9849
1	1415	9850
1	1409	9851
1	1419	9852
1	1436	9853
1	1473	9854
1	1517	9855
1	1568	9856
1	1618	9857
1	1674	9858
1	1720	9859
1	1702	9900
1	1706	9901
1	1688	9902
1	1660	9903
1	1613	9904
1	1557	9905
1	1502	9906
1	1453	9907
1	1422	9908
1	1402	9909
1	1400	9910
1	1417	9911
1	1449	9912
1	1487	9913
1	1529	9914
1	1569	9915
1	1596	9916
1	1629	9917
1	1660	9918
1	1670	9919
1	1677	9920
1	1670	9921
1	1651	9922
1	1622	9923
1	1587	9924
1	1543	9925
1	1503	9926
1	1476	9927
1	1450	9928
1	1450	9929
1	1473	9930
1	1515	9931
1	1580	9932
1	1662	9933
1	1751	9934
1	1857	9935
1	1940	9936
1	2028	9937
1	2115	9938
1	2188	9939
1	1737	9980
1	1699	9981
1	1644	9982
1	1571	9983
1	1492	9984
1	1414	9985
1	1340	9986
1	1278	9987
1	1222	9988
1	1178	9989
1	1148	9990
1	1140	9991
1	1161	9992
1	1195	9993
1	1245	9994
1	1305	9995
1	1355	9996
1	1398	9997
1	1428	9998
1	1447	9999
1	2648	9960
1	2563	9961
1	2476	9962
1	2375	9963
1	2264	9964
1	2157	9965
1	2060	9966
1	1962	9967
1	1863	9968
1	1776	9969
1	1712	9970
1	1678	9971
1	1661	9972
1	1660	9973
1	1678	9974
1	1697	9975
1	1715	9976
1	1743	9977
1	1756	9978
1	1755	9979
1	1456	10000
1	1456	10001
1	1449	10002
1	1428	10003
1	1406	10004
1	1378	10005
1	1353	10006
1	1335	10007
1	1319	10008
1	1312	10009
1	1319	10010
1	1333	10011
1	1361	10012
1	1402	10013
1	1448	10014
1	1490	10015
1	1527	10016
1	1560	10017
1	1581	10018
1	1599	10019
1	2264	9940
1	2329	9941
1	2377	9942
1	2414	9943
1	2458	9944
1	2497	9945
1	2530	9946
1	2568	9947
1	2607	9948
1	2658	9949
1	2709	9950
1	2764	9951
1	2815	9952
1	2853	9953
1	2875	9954
1	2879	9955
1	2868	9956
1	2841	9957
1	2791	9958
1	2727	9959
1	1607	10020
1	1605	10021
1	1583	10022
1	1553	10023
1	1501	10024
1	1445	10025
1	1384	10026
1	1338	10027
1	1305	10028
1	1283	10029
1	1274	10030
1	1287	10031
1	1314	10032
1	1344	10033
1	1396	10034
1	1449	10035
1	1502	10036
1	1551	10037
1	1594	10038
1	1623	10039
1	1646	10040
1	1652	10041
1	1634	10042
1	1602	10043
1	1567	10044
1	1533	10045
1	1500	10046
1	1458	10047
1	1418	10048
1	1384	10049
1	1369	10050
1	1372	10051
1	1397	10052
1	1436	10053
1	1472	10054
1	1507	10055
1	1546	10056
1	1586	10057
1	1626	10058
1	1652	10059
1	1665	10060
1	1668	10061
1	1659	10062
1	1633	10063
1	1602	10064
1	1569	10065
1	1529	10066
1	1494	10067
1	1475	10068
1	1457	10069
1	1454	10070
1	1461	10071
1	1476	10072
1	1492	10073
1	1516	10074
1	1541	10075
1	1571	10076
1	1605	10077
1	1621	10078
1	1631	10079
1	1625	10080
1	1607	10081
1	1584	10082
1	1554	10083
1	1512	10084
1	1476	10085
1	1449	10086
1	1424	10087
1	1403	10088
1	1390	10089
1	1384	10090
1	1405	10091
1	1436	10092
