#Date:= 2024-10-08T16:02:40.278049
#Sampling Rate(Hz):= 1000
#Labels:= LOD	ECG	TS
1	1512	20
1	1521	21
1	1533	22
1	1551	23
1	1566	24
1	1589	25
1	1616	26
1	1639	27
1	1660	28
1	1667	29
1	1673	30
1	1665	31
1	1652	32
1	1639	33
1	1634	34
1	1629	35
1	1615	36
1	1607	37
1	1598	38
1	1594	39
1	1593	40
1	1595	41
1	1605	42
1	1613	43
1	1630	44
1	1641	45
1	1651	46
1	1665	47
1	1686	48
1	1706	49
1	1721	50
1	1736	51
1	1742	52
1	1751	53
1	1740	54
1	1728	55
1	1707	56
1	1676	57
1	1642	58
1	1611	59
1	1585	60
1	1579	61
1	1582	62
1	1605	63
1	1634	64
1	1679	65
1	1727	66
1	1783	67
1	1837	68
1	1862	69
1	1869	70
1	1856	71
1	1836	72
1	1795	73
1	1755	74
1	1720	75
1	1694	76
1	1672	77
1	1646	78
1	1628	79
1	1628	80
1	1646	81
1	1675	82
1	1710	83
1	1743	84
1	1787	85
1	1820	86
1	1841	87
1	1843	88
1	1834	89
1	1809	90
1	1775	91
1	1752	92
1	1749	93
1	1752	94
1	1754	95
1	1762	96
1	1767	97
1	1764	98
1	1764	99
1	1773	100
1	1773	101
1	1774	102
1	1783	103
1	1800	104
1	1815	105
1	1826	106
1	1829	107
1	1831	108
1	1834	109
1	1827	110
1	1796	111
1	1760	112
1	1710	113
1	1647	114
1	1605	115
1	1580	116
1	1560	117
1	1542	118
1	1520	119
1	1499	120
1	1490	121
1	1492	122
1	1517	123
1	1566	124
1	1598	125
1	1634	126
1	1660	127
1	1686	128
1	1692	129
1	1681	130
1	1652	131
1	1623	132
1	1598	133
1	1583	134
1	1572	135
1	1561	136
1	1549	137
1	1540	138
1	1541	139
1	1541	140
1	1539	141
1	1542	142
1	1553	143
1	1574	144
1	1620	145
1	1664	146
1	1720	147
1	1764	148
1	1800	149
1	1819	150
1	1823	151
1	1809	152
1	1785	153
1	1759	154
1	1724	155
1	1678	156
1	1633	157
1	1591	158
1	1555	159
1	1527	160
1	1505	161
1	1492	162
1	1490	163
1	1503	164
1	1529	165
1	1562	166
1	1592	167
1	1631	168
1	1661	169
1	1686	170
1	1697	171
1	1694	172
1	1686	173
1	1680	174
1	1667	175
1	1651	176
1	1629	177
1	1602	178
1	1593	179
1	1582	180
1	1572	181
1	1572	182
1	1584	183
1	1599	184
1	1607	185
1	1600	186
1	1602	187
1	1602	188
1	1597	189
1	1591	190
1	1586	191
1	1590	192
1	1605	193
1	1617	194
1	1631	195
1	1638	196
1	1646	197
1	1652	198
1	1670	199
1	1701	200
1	1742	201
1	1791	202
1	1839	203
1	1869	204
1	1899	205
1	1936	206
1	1976	207
1	2030	208
1	2081	209
1	2119	210
1	2133	211
1	2131	212
1	2119	213
1	2101	214
1	2076	215
1	2051	216
1	2016	217
1	1960	218
1	1883	219
1	1803	220
1	1738	221
1	1685	222
1	1647	223
1	1632	224
1	1607	225
1	1585	226
1	1556	227
1	1529	228
1	1490	229
1	1467	230
1	1459	231
1	1467	232
1	1473	233
1	1469	234
1	1469	235
1	1476	236
1	1481	237
1	1495	238
1	1510	239
1	1528	240
1	1545	241
1	1553	242
1	1557	243
1	1571	244
1	1584	245
1	1602	246
1	1620	247
1	1629	248
1	1620	249
1	1613	250
1	1607	251
1	1598	252
1	1589	253
1	1574	254
1	1548	255
1	1532	256
1	1528	257
1	1527	258
1	1528	259
1	1528	260
1	1530	261
1	1548	262
1	1577	263
1	1597	264
1	1625	265
1	1652	266
1	1674	267
1	1692	268
1	1699	269
1	1712	270
1	1713	271
1	1700	272
1	1679	273
1	1660	274
1	1632	275
1	1587	276
1	1544	277
1	1508	278
1	1476	279
1	1461	280
1	1458	281
1	1466	282
1	1493	283
1	1526	284
1	1563	285
1	1605	286
1	1647	287
1	1685	288
1	1715	289
1	1742	290
1	1760	291
1	1760	292
1	1755	293
1	1731	294
1	1690	295
1	1643	296
1	1602	297
1	1570	298
1	1542	299
1	1529	300
1	1532	301
1	1543	302
1	1555	303
1	1584	304
1	1631	305
1	1685	306
1	1721	307
1	1736	308
1	1738	309
1	1744	310
1	1737	311
1	1713	312
1	1695	313
1	1661	314
1	1633	315
1	1607	316
1	1587	317
1	1567	318
1	1539	319
1	1510	320
1	1490	321
1	1485	322
1	1494	323
1	1517	324
1	1546	325
1	1579	326
1	1608	327
1	1641	328
1	1677	329
1	1708	330
1	1730	331
1	1747	332
1	1754	333
1	1742	334
1	1725	335
1	1695	336
1	1673	337
1	1660	338
1	1647	339
1	1634	340
1	1630	341
1	1628	342
1	1641	343
1	1669	344
1	1692	345
1	1712	346
1	1729	347
1	1738	348
1	1751	349
1	1764	350
1	1767	351
1	1760	352
1	1734	353
1	1683	354
1	1633	355
1	1593	356
1	1569	357
1	1545	358
1	1535	359
1	1779	400
1	1800	401
1	1821	402
1	1854	403
1	1886	404
1	1934	405
1	1976	406
1	2011	407
1	2032	408
1	2052	409
1	2052	410
1	2039	411
1	2009	412
1	1970	413
1	1922	414
1	1884	415
1	1855	416
1	1836	417
1	1832	418
1	1832	419
1	1775	380
1	1782	381
1	1793	382
1	1814	383
1	1817	384
1	1837	385
1	1856	386
1	1874	387
1	1895	388
1	1909	389
1	1922	390
1	1917	391
1	1901	392
1	1877	393
1	1844	394
1	1817	395
1	1791	396
1	1769	397
1	1760	398
1	1764	399
1	1540	360
1	1553	361
1	1576	362
1	1616	363
1	1667	364
1	1716	365
1	1764	366
1	1812	367
1	1842	368
1	1858	369
1	1881	370
1	1893	371
1	1895	372
1	1895	373
1	1870	374
1	1847	375
1	1825	376
1	1801	377
1	1782	378
1	1773	379
1	1832	420
1	1832	421
1	1848	422
1	1862	423
1	1884	424
1	1914	425
1	1947	426
1	1976	427
1	2004	428
1	2026	429
1	2034	430
1	2027	431
1	2013	432
1	1996	433
1	1972	434
1	1944	435
1	1910	436
1	1888	437
1	1882	438
1	1878	439
1	1872	440
1	1869	441
1	1869	442
1	1870	443
1	1877	444
1	1893	445
1	1897	446
1	1899	447
1	1908	448
1	1920	449
1	1919	450
1	1910	451
1	1890	452
1	1868	453
1	1845	454
1	1817	455
1	1796	456
1	1791	457
1	1782	458
1	1759	459
1	1743	460
1	1737	461
1	1730	462
1	1725	463
1	1733	464
1	1741	465
1	1751	466
1	1755	467
1	1760	468
1	1764	469
1	1772	470
1	1775	471
1	1778	472
1	1773	473
1	1755	474
1	1730	475
1	1695	476
1	1659	477
1	1639	478
1	1625	479
1	1698	500
1	1686	501
1	1682	502
1	1677	503
1	1679	504
1	1691	505
1	1705	506
1	1715	507
1	1724	508
1	1716	509
1	1710	510
1	1698	511
1	1690	512
1	1680	513
1	1669	514
1	1660	515
1	1658	516
1	1667	517
1	1688	518
1	1713	519
1	1620	480
1	1623	481
1	1638	482
1	1665	483
1	1704	484
1	1742	485
1	1782	486
1	1817	487
1	1829	488
1	1816	489
1	1799	490
1	1785	491
1	1769	492
1	1764	493
1	1764	494
1	1764	495
1	1758	496
1	1751	497
1	1736	498
1	1715	499
1	1742	520
1	1763	521
1	1782	522
1	1795	523
1	1821	524
1	1839	525
1	1858	526
1	1869	527
1	1869	528
1	1856	529
1	1842	530
1	1818	531
1	1782	532
1	1743	533
1	1698	534
1	1651	535
1	1620	536
1	1598	537
1	1589	538
1	1595	539
1	1690	560
1	1686	561
1	1687	562
1	1700	563
1	1712	564
1	1737	565
1	1763	566
1	1783	567
1	1800	568
1	1808	569
1	1801	570
1	1794	571
1	1793	572
1	1795	573
1	1791	574
1	1787	575
1	1776	576
1	1772	577
1	1768	578
1	1764	579
1	1609	540
1	1634	541
1	1647	542
1	1659	543
1	1669	544
1	1674	545
1	1686	546
1	1696	547
1	1712	548
1	1734	549
1	1760	550
1	1789	551
1	1801	552
1	1801	553
1	1801	554
1	1786	555
1	1762	556
1	1738	557
1	1717	558
1	1701	559
1	1764	580
1	1780	581
1	1800	582
1	1824	583
1	1839	584
1	1843	585
1	1852	586
1	1859	587
1	1858	588
1	1852	589
1	1845	590
1	1837	591
1	1832	592
1	1830	593
1	1817	594
1	1802	595
1	1793	596
1	1780	597
1	1777	598
1	1767	599
1	1767	600
1	1779	601
1	1793	602
1	1817	603
1	1841	604
1	1870	605
1	1900	606
1	1922	607
1	1931	608
1	1933	609
1	1927	610
1	1914	611
1	1891	612
1	1868	613
1	1829	614
1	1790	615
1	1754	616
1	1723	617
1	1699	618
1	1698	619
1	1701	620
1	1712	621
1	1739	622
1	1766	623
1	1790	624
1	1803	625
1	1818	626
1	1827	627
1	1824	628
1	1815	629
1	1798	630
1	1779	631
1	1749	632
1	1715	633
1	1685	634
1	1658	635
1	1647	636
1	1651	637
1	1658	638
1	1670	639
1	1690	640
1	1716	641
1	1742	642
1	1775	643
1	1824	644
1	1865	645
1	1898	646
1	1931	647
1	1948	648
1	1950	649
1	1940	650
1	1919	651
1	1883	652
1	1838	653
1	1781	654
1	1737	655
1	1688	656
1	1651	657
1	1620	658
1	1613	659
1	1730	680
1	1729	681
1	1725	682
1	1721	683
1	1720	684
1	1731	685
1	1747	686
1	1769	687
1	1791	688
1	1796	689
1	1791	690
1	1773	691
1	1752	692
1	1739	693
1	1739	694
1	1734	695
1	1719	696
1	1703	697
1	1690	698
1	1682	699
1	1602	660
1	1590	661
1	1598	662
1	1620	663
1	1647	664
1	1675	665
1	1697	666
1	1709	667
1	1719	668
1	1725	669
1	1724	670
1	1712	671
1	1701	672
1	1703	673
1	1700	674
1	1692	675
1	1692	676
1	1700	677
1	1710	678
1	1718	679
1	1683	700
1	1674	701
1	1669	702
1	1675	703
1	1686	704
1	1695	705
1	1705	706
1	1714	707
1	1720	708
1	1713	709
1	1703	710
1	1685	711
1	1654	712
1	1617	713
1	1565	714
1	1521	715
1	1477	716
1	1450	717
1	1451	718
1	1474	719
1	1512	720
1	1557	721
1	1607	722
1	1685	723
1	1751	724
1	1827	725
1	1895	726
1	1965	727
1	2022	728
1	2068	729
1	2105	730
1	2132	731
1	2153	732
1	2160	733
1	2161	734
1	2165	735
1	2170	736
1	2170	737
1	2171	738
1	2166	739
1	2156	740
1	2139	741
1	2119	742
1	2089	743
1	2040	744
1	1985	745
1	1920	746
1	1852	747
1	1787	748
1	1742	749
1	1711	750
1	1678	751
1	1638	752
1	1607	753
1	1581	754
1	1568	755
1	1561	756
1	1567	757
1	1584	758
1	1604	759
1	1628	760
1	1649	761
1	1665	762
1	1677	763
1	1690	764
1	1697	765
1	1702	766
1	1712	767
1	1725	768
1	1738	769
1	1746	770
1	1738	771
1	1715	772
1	1682	773
1	1643	774
1	1618	775
1	1603	776
1	1594	777
1	1594	778
1	1594	779
1	1598	780
1	1598	781
1	1598	782
1	1605	783
1	1615	784
1	1632	785
1	1652	786
1	1667	787
1	1683	788
1	1688	789
1	1700	790
1	1699	791
1	1691	792
1	1688	793
1	1680	794
1	1660	795
1	1634	796
1	1611	797
1	1605	798
1	1607	799
1	1613	800
1	1623	801
1	1636	802
1	1658	803
1	1679	804
1	1707	805
1	1725	806
1	1741	807
1	1757	808
1	1764	809
1	1767	810
1	1760	811
1	1738	812
1	1715	813
1	1699	814
1	1687	815
1	1684	816
1	1685	817
1	1686	818
1	1683	819
1	1695	820
1	1712	821
1	1736	822
1	1756	823
1	1777	824
1	1770	825
1	1780	826
1	1783	827
1	1783	828
1	1778	829
1	1773	830
1	1773	831
1	1773	832
1	1764	833
1	1736	834
1	1703	835
1	1672	836
1	1642	837
1	1612	838
1	1584	839
1	1566	840
1	1575	841
1	1587	842
1	1609	843
1	1649	844
1	1698	845
1	1741	846
1	1775	847
1	1792	848
1	1796	849
1	1793	850
1	1772	851
1	1738	852
1	1701	853
1	1671	854
1	1638	855
1	1615	856
1	1600	857
1	1594	858
1	1602	859
1	1618	860
1	1643	861
1	1661	862
1	1685	863
1	1701	864
1	1718	865
1	1738	866
1	1757	867
1	1778	868
1	1791	869
1	1800	870
1	1803	871
1	1788	872
1	1764	873
1	1731	874
1	1698	875
1	1675	876
1	1667	877
1	1669	878
1	1673	879
1	1682	880
1	1692	881
1	1716	882
1	1754	883
1	1790	884
1	1826	885
1	1855	886
1	1877	887
1	1887	888
1	1878	889
1	1856	890
1	1826	891
1	1792	892
1	1766	893
1	1742	894
1	1715	895
1	1688	896
1	1664	897
1	1648	898
1	1641	899
1	1646	900
1	1663	901
1	1697	902
1	1734	903
1	1773	904
1	1817	905
1	1862	906
1	1899	907
1	1919	908
1	1917	909
1	1908	910
1	1888	911
1	1861	912
1	1842	913
1	1818	914
1	1793	915
1	1787	916
1	1790	917
1	1790	918
1	1789	919
1	1788	920
1	1788	921
1	1798	922
1	1835	923
1	1875	924
1	1918	925
1	1952	926
1	1985	927
1	2000	928
1	2003	929
1	2002	930
1	1994	931
1	1976	932
1	1965	933
1	1948	934
1	1922	935
1	1886	936
1	1851	937
1	1821	938
1	1786	939
1	1766	940
1	1768	941
1	1790	942
1	1828	943
1	1886	944
1	1939	945
1	1978	946
1	2007	947
1	2017	948
1	2015	949
1	2006	950
1	1991	951
1	1965	952
1	1945	953
1	1922	954
1	1910	955
1	1901	956
1	1891	957
1	1878	958
1	1859	959
1	1837	960
1	1823	961
1	1821	962
1	1836	963
1	1868	964
1	1895	965
1	1917	966
1	1933	967
1	1940	968
1	1943	969
1	1952	970
1	1955	971
1	1949	972
1	1944	973
1	1921	974
1	1893	975
1	1859	976
1	1824	977
1	1792	978
1	1777	979
1	1578	1000
1	1593	1001
1	1609	1002
1	1634	1003
1	1652	1004
1	1674	1005
1	1693	1006
1	1724	1007
1	1751	1008
1	1770	1009
1	1787	1010
1	1803	1011
1	1817	1012
1	1817	1013
1	1789	1014
1	1753	1015
1	1712	1016
1	1668	1017
1	1632	1018
1	1597	1019
1	1774	980
1	1787	981
1	1812	982
1	1834	983
1	1844	984
1	1857	985
1	1855	986
1	1851	987
1	1850	988
1	1841	989
1	1827	990
1	1811	991
1	1783	992
1	1745	993
1	1698	994
1	1652	995
1	1612	996
1	1583	997
1	1567	998
1	1566	999
1	1572	1020
1	1551	1021
1	1537	1022
1	1529	1023
1	1521	1024
1	1532	1025
1	1547	1026
1	1574	1027
1	1600	1028
1	1620	1029
1	1633	1030
1	1628	1031
1	1607	1032
1	1579	1033
1	1550	1034
1	1529	1035
1	1521	1036
1	1529	1037
1	1554	1038
1	1575	1039
1	1598	1040
1	1625	1041
1	1646	1042
1	1671	1043
1	1686	1044
1	1701	1045
1	1717	1046
1	1731	1047
1	1741	1048
1	1755	1049
1	1760	1050
1	1756	1051
1	1736	1052
1	1697	1053
1	1657	1054
1	1622	1055
1	1601	1056
1	1593	1057
1	1590	1058
1	1587	1059
1	1596	1060
1	1607	1061
1	1611	1062
1	1624	1063
1	1634	1064
1	1655	1065
1	1670	1066
1	1673	1067
1	1679	1068
1	1679	1069
1	1686	1070
1	1690	1071
1	1697	1072
1	1705	1073
1	1701	1074
1	1695	1075
1	1684	1076
1	1670	1077
1	1658	1078
1	1645	1079
1	1643	1080
1	1654	1081
1	1677	1082
1	1700	1083
1	1712	1084
1	1718	1085
1	1721	1086
1	1717	1087
1	1713	1088
1	1701	1089
1	1694	1090
1	1677	1091
1	1652	1092
1	1621	1093
1	1589	1094
1	1564	1095
1	1551	1096
1	1546	1097
1	1551	1098
1	1561	1099
1	1579	1100
1	1595	1101
1	1609	1102
1	1621	1103
1	1628	1104
1	1645	1105
1	1677	1106
1	1711	1107
1	1738	1108
1	1744	1109
1	1751	1110
1	1754	1111
1	1740	1112
1	1720	1113
1	1701	1114
1	1682	1115
1	1660	1116
1	1647	1117
1	1646	1118
1	1644	1119
1	1647	1120
1	1652	1121
1	1652	1122
1	1661	1123
1	1690	1124
1	1708	1125
1	1738	1126
1	1773	1127
1	1811	1128
1	1823	1129
1	1827	1130
1	1826	1131
1	1818	1132
1	1796	1133
1	1773	1134
1	1738	1135
1	1705	1136
1	1665	1137
1	1620	1138
1	1578	1139
1	1544	1140
1	1531	1141
1	1548	1142
1	1592	1143
1	1647	1144
1	1708	1145
1	1764	1146
1	1816	1147
1	1856	1148
1	1881	1149
1	1895	1150
1	1888	1151
1	1861	1152
1	1818	1153
1	1778	1154
1	1737	1155
1	1700	1156
1	1667	1157
1	1643	1158
1	1617	1159
1	1599	1160
1	1587	1161
1	1582	1162
1	1587	1163
1	1593	1164
1	1608	1165
1	1634	1166
1	1657	1167
1	1690	1168
1	1708	1169
1	1717	1170
1	1727	1171
1	1729	1172
1	1721	1173
1	1701	1174
1	1677	1175
1	1650	1176
1	1631	1177
1	1621	1178
1	1615	1179
1	1616	1180
1	1625	1181
1	1625	1182
1	1634	1183
1	1646	1184
1	1670	1185
1	1708	1186
1	1739	1187
1	1754	1188
1	1760	1189
1	1751	1190
1	1734	1191
1	1710	1192
1	1682	1193
1	1634	1194
1	1585	1195
1	1537	1196
1	1495	1197
1	1472	1198
1	1453	1199
1	1452	1200
1	1466	1201
1	1491	1202
1	1517	1203
1	1541	1204
1	1563	1205
1	1593	1206
1	1617	1207
1	1634	1208
1	1634	1209
1	1635	1210
1	1634	1211
1	1625	1212
1	1607	1213
1	1568	1214
1	1529	1215
1	1500	1216
1	1481	1217
1	1478	1218
1	1490	1219
1	1516	1220
1	1544	1221
1	1570	1222
1	1593	1223
1	1611	1224
1	1628	1225
1	1647	1226
1	1660	1227
1	1661	1228
1	1652	1229
1	1639	1230
1	1624	1231
1	1600	1232
1	1581	1233
1	1566	1234
1	1551	1235
1	1533	1236
1	1512	1237
1	1498	1238
1	1485	1239
1	1488	1240
1	1494	1241
1	1509	1242
1	1534	1243
1	1567	1244
1	1593	1245
1	1621	1246
1	1654	1247
1	1676	1248
1	1676	1249
1	1660	1250
1	1647	1251
1	1623	1252
1	1593	1253
1	1557	1254
1	1530	1255
1	1502	1256
1	1476	1257
1	1467	1258
1	1467	1259
1	1485	1260
1	1512	1261
1	1544	1262
1	1581	1263
1	1625	1264
1	1678	1265
1	1738	1266
1	1800	1267
1	1859	1268
1	1904	1269
1	1942	1270
1	1976	1271
1	2000	1272
1	2021	1273
1	2024	1274
1	2017	1275
1	2017	1276
1	2003	1277
1	1974	1278
1	1945	1279
1	1922	1280
1	1913	1281
1	1904	1282
1	1903	1283
1	1897	1284
1	1890	1285
1	1875	1286
1	1844	1287
1	1800	1288
1	1738	1289
1	1681	1290
1	1622	1291
1	1566	1292
1	1511	1293
1	1453	1294
1	1398	1295
1	1346	1296
1	1317	1297
1	1296	1298
1	1282	1299
1	1283	1300
1	1295	1301
1	1322	1302
1	1368	1303
1	1419	1304
1	1467	1305
1	1504	1306
1	1533	1307
1	1553	1308
1	1557	1309
1	1566	1310
1	1575	1311
1	1581	1312
1	1572	1313
1	1555	1314
1	1538	1315
1	1524	1316
1	1515	1317
1	1526	1318
1	1529	1319
1	1532	1320
1	1544	1321
1	1561	1322
1	1585	1323
1	1597	1324
1	1611	1325
1	1623	1326
1	1631	1327
1	1645	1328
1	1660	1329
1	1665	1330
1	1660	1331
1	1642	1332
1	1612	1333
1	1578	1334
1	1543	1335
1	1512	1336
1	1487	1337
1	1476	1338
1	1474	1339
1	1476	1340
1	1490	1341
1	1508	1342
1	1534	1343
1	1556	1344
1	1585	1345
1	1607	1346
1	1612	1347
1	1603	1348
1	1593	1349
1	1575	1350
1	1561	1351
1	1549	1352
1	1534	1353
1	1526	1354
1	1517	1355
1	1516	1356
1	1520	1357
1	1525	1358
1	1530	1359
1	1550	1360
1	1573	1361
1	1593	1362
1	1607	1363
1	1608	1364
1	1623	1365
1	1641	1366
1	1656	1367
1	1660	1368
1	1658	1369
1	1650	1370
1	1634	1371
1	1611	1372
1	1592	1373
1	1555	1374
1	1521	1375
1	1494	1376
1	1476	1377
1	1469	1378
1	1462	1379
1	1475	1380
1	1492	1381
1	1503	1382
1	1515	1383
1	1542	1384
1	1582	1385
1	1634	1386
1	1674	1387
1	1707	1388
1	1720	1389
1	1716	1390
1	1699	1391
1	1661	1392
1	1629	1393
1	1583	1394
1	1543	1395
1	1511	1396
1	1486	1397
1	1472	1398
1	1469	1399
1	1476	1400
1	1490	1401
1	1504	1402
1	1533	1403
1	1564	1404
1	1602	1405
1	1634	1406
1	1645	1407
1	1651	1408
1	1647	1409
1	1637	1410
1	1625	1411
1	1607	1412
1	1583	1413
1	1564	1414
1	1554	1415
1	1546	1416
1	1534	1417
1	1525	1418
1	1516	1419
1	1532	1420
1	1561	1421
1	1590	1422
1	1617	1423
1	1647	1424
1	1661	1425
1	1688	1426
1	1713	1427
1	1734	1428
1	1746	1429
1	1737	1430
1	1714	1431
1	1688	1432
1	1660	1433
1	1631	1434
1	1599	1435
1	1579	1436
1	1563	1437
1	1563	1438
1	1569	1439
1	1605	1460
1	1620	1461
1	1646	1462
1	1686	1463
1	1725	1464
1	1778	1465
1	1823	1466
1	1852	1467
1	1872	1468
1	1869	1469
1	1854	1470
1	1827	1471
1	1791	1472
1	1764	1473
1	1744	1474
1	1726	1475
1	1712	1476
1	1704	1477
1	1700	1478
1	1695	1479
1	1580	1440
1	1598	1441
1	1625	1442
1	1657	1443
1	1687	1444
1	1721	1445
1	1759	1446
1	1788	1447
1	1815	1448
1	1817	1449
1	1817	1450
1	1803	1451
1	1790	1452
1	1765	1453
1	1749	1454
1	1715	1455
1	1677	1456
1	1643	1457
1	1617	1458
1	1605	1459
1	1701	1480
1	1718	1481
1	1737	1482
1	1765	1483
1	1811	1484
1	1859	1485
1	1913	1486
1	1952	1487
1	1974	1488
1	1974	1489
1	1955	1490
1	1926	1491
1	1888	1492
1	1854	1493
1	1818	1494
1	1785	1495
1	1764	1496
1	1751	1497
1	1759	1498
1	1760	1499
1	1764	1500
1	1754	1501
1	1750	1502
1	1751	1503
1	1761	1504
1	1764	1505
1	1776	1506
1	1789	1507
1	1801	1508
1	1814	1509
1	1823	1510
1	1826	1511
1	1818	1512
1	1818	1513
1	1816	1514
1	1799	1515
1	1767	1516
1	1746	1517
1	1736	1518
1	1731	1519
1	1717	1520
1	1701	1521
1	1699	1522
1	1703	1523
1	1708	1524
1	1714	1525
1	1723	1526
1	1718	1527
1	1710	1528
1	1697	1529
1	1686	1530
1	1670	1531
1	1643	1532
1	1607	1533
1	1567	1534
1	1535	1535
1	1510	1536
1	1493	1537
1	1485	1538
1	1472	1539
1	1424	1560
1	1411	1561
1	1410	1562
1	1421	1563
1	1433	1564
1	1454	1565
1	1491	1566
1	1528	1567
1	1553	1568
1	1559	1569
1	1559	1570
1	1554	1571
1	1555	1572
1	1569	1573
1	1578	1574
1	1587	1575
1	1595	1576
1	1602	1577
1	1608	1578
1	1621	1579
1	1472	1540
1	1476	1541
1	1492	1542
1	1517	1543
1	1557	1544
1	1596	1545
1	1634	1546
1	1663	1547
1	1686	1548
1	1700	1549
1	1699	1550
1	1688	1551
1	1671	1552
1	1645	1553
1	1602	1554
1	1557	1555
1	1517	1556
1	1490	1557
1	1472	1558
1	1447	1559
1	1634	1580
1	1645	1581
1	1652	1582
1	1656	1583
1	1643	1584
1	1634	1585
1	1621	1586
1	1610	1587
1	1607	1588
1	1586	1589
1	1559	1590
1	1529	1591
1	1494	1592
1	1460	1593
1	1435	1594
1	1415	1595
1	1402	1596
1	1395	1597
1	1403	1598
1	1413	1599
1	1425	1600
1	1442	1601
1	1473	1602
1	1513	1603
1	1543	1604
1	1567	1605
1	1594	1606
1	1616	1607
1	1625	1608
1	1625	1609
1	1616	1610
1	1607	1611
1	1594	1612
1	1581	1613
1	1557	1614
1	1544	1615
1	1530	1616
1	1517	1617
1	1521	1618
1	1530	1619
1	1548	1620
1	1562	1621
1	1580	1622
1	1607	1623
1	1629	1624
1	1656	1625
1	1678	1626
1	1695	1627
1	1693	1628
1	1679	1629
1	1665	1630
1	1647	1631
1	1615	1632
1	1575	1633
1	1542	1634
1	1531	1635
1	1526	1636
1	1525	1637
1	1517	1638
1	1504	1639
1	1495	1640
1	1493	1641
1	1508	1642
1	1542	1643
1	1579	1644
1	1611	1645
1	1639	1646
1	1659	1647
1	1674	1648
1	1684	1649
1	1679	1650
1	1661	1651
1	1647	1652
1	1635	1653
1	1623	1654
1	1598	1655
1	1577	1656
1	1557	1657
1	1553	1658
1	1552	1659
1	1555	1660
1	1563	1661
1	1577	1662
1	1599	1663
1	1624	1664
1	1655	1665
1	1676	1666
1	1688	1667
1	1697	1668
1	1695	1669
1	1685	1670
1	1669	1671
1	1644	1672
1	1611	1673
1	1577	1674
1	1547	1675
1	1526	1676
1	1505	1677
1	1503	1678
1	1503	1679
1	1513	1680
1	1533	1681
1	1555	1682
1	1582	1683
1	1610	1684
1	1652	1685
1	1697	1686
1	1728	1687
1	1743	1688
1	1738	1689
1	1734	1690
1	1731	1691
1	1719	1692
1	1701	1693
1	1674	1694
1	1643	1695
1	1610	1696
1	1582	1697
1	1563	1698
1	1557	1699
1	1562	1700
1	1582	1701
1	1607	1702
1	1629	1703
1	1646	1704
1	1662	1705
1	1686	1706
1	1700	1707
1	1710	1708
1	1708	1709
1	1708	1710
1	1701	1711
1	1687	1712
1	1662	1713
1	1629	1714
1	1589	1715
1	1555	1716
1	1525	1717
1	1485	1718
1	1454	1719
1	1449	1720
1	1461	1721
1	1492	1722
1	1538	1723
1	1586	1724
1	1633	1725
1	1665	1726
1	1681	1727
1	1674	1728
1	1647	1729
1	1610	1730
1	1581	1731
1	1553	1732
1	1518	1733
1	1490	1734
1	1471	1735
1	1449	1736
1	1437	1737
1	1438	1738
1	1450	1739
1	1431	1780
1	1476	1781
1	1524	1782
1	1576	1783
1	1620	1784
1	1656	1785
1	1675	1786
1	1678	1787
1	1665	1788
1	1650	1789
1	1633	1790
1	1613	1791
1	1593	1792
1	1566	1793
1	1529	1794
1	1494	1795
1	1467	1796
1	1454	1797
1	1461	1798
1	1463	1799
1	1476	1740
1	1502	1741
1	1529	1742
1	1555	1743
1	1577	1744
1	1598	1745
1	1618	1746
1	1635	1747
1	1656	1748
1	1661	1749
1	1660	1750
1	1643	1751
1	1607	1752
1	1562	1753
1	1529	1754
1	1492	1755
1	1472	1756
1	1463	1757
1	1454	1758
1	1460	1759
1	1481	1760
1	1514	1761
1	1543	1762
1	1566	1763
1	1584	1764
1	1597	1765
1	1613	1766
1	1626	1767
1	1634	1768
1	1621	1769
1	1595	1770
1	1566	1771
1	1533	1772
1	1500	1773
1	1467	1774
1	1434	1775
1	1409	1776
1	1398	1777
1	1396	1778
1	1402	1779
1	1464	1800
1	1474	1801
1	1489	1802
1	1508	1803
1	1530	1804
1	1553	1805
1	1571	1806
1	1589	1807
1	1608	1808
1	1632	1809
1	1671	1810
1	1715	1811
1	1756	1812
1	1796	1813
1	1834	1814
1	1856	1815
1	1869	1816
1	1891	1817
1	1918	1818
1	1935	1819
1	1953	1820
1	1961	1821
1	1969	1822
1	1975	1823
1	1974	1824
1	1961	1825
1	1947	1826
1	1927	1827
1	1908	1828
1	1869	1829
1	1823	1830
1	1762	1831
1	1700	1832
1	1647	1833
1	1586	1834
1	1529	1835
1	1473	1836
1	1422	1837
1	1373	1838
1	1332	1839
1	1316	1840
1	1311	1841
1	1321	1842
1	1346	1843
1	1381	1844
1	1416	1845
1	1438	1846
1	1460	1847
1	1482	1848
1	1520	1849
1	1555	1850
1	1576	1851
1	1584	1852
1	1586	1853
1	1578	1854
1	1561	1855
1	1548	1856
1	1526	1857
1	1508	1858
1	1487	1859
1	1482	1880
1	1503	1881
1	1521	1882
1	1541	1883
1	1550	1884
1	1567	1885
1	1595	1886
1	1626	1887
1	1655	1888
1	1669	1889
1	1669	1890
1	1659	1891
1	1644	1892
1	1626	1893
1	1598	1894
1	1561	1895
1	1521	1896
1	1492	1897
1	1478	1898
1	1473	1899
1	1472	1860
1	1454	1861
1	1449	1862
1	1450	1863
1	1464	1864
1	1490	1865
1	1516	1866
1	1542	1867
1	1579	1868
1	1607	1869
1	1634	1870
1	1647	1871
1	1638	1872
1	1621	1873
1	1594	1874
1	1562	1875
1	1528	1876
1	1498	1877
1	1476	1878
1	1469	1879
1	1481	1900
1	1503	1901
1	1525	1902
1	1544	1903
1	1559	1904
1	1572	1905
1	1587	1906
1	1598	1907
1	1608	1908
1	1622	1909
1	1625	1910
1	1617	1911
1	1607	1912
1	1592	1913
1	1571	1914
1	1559	1915
1	1538	1916
1	1512	1917
1	1498	1918
1	1488	1919
1	1494	1920
1	1521	1921
1	1555	1922
1	1602	1923
1	1636	1924
1	1671	1925
1	1698	1926
1	1712	1927
1	1716	1928
1	1715	1929
1	1705	1930
1	1685	1931
1	1655	1932
1	1624	1933
1	1591	1934
1	1579	1935
1	1570	1936
1	1568	1937
1	1566	1938
1	1562	1939
1	1566	1940
1	1574	1941
1	1581	1942
1	1584	1943
1	1592	1944
1	1585	1945
1	1582	1946
1	1582	1947
1	1579	1948
1	1585	1949
1	1585	1950
1	1582	1951
1	1573	1952
1	1570	1953
1	1568	1954
1	1565	1955
1	1557	1956
1	1551	1957
1	1544	1958
1	1539	1959
1	1555	1960
1	1585	1961
1	1620	1962
1	1658	1963
1	1681	1964
1	1699	1965
1	1718	1966
1	1726	1967
1	1726	1968
1	1730	1969
1	1734	1970
1	1736	1971
1	1724	1972
1	1710	1973
1	1691	1974
1	1677	1975
1	1661	1976
1	1647	1977
1	1638	1978
1	1625	1979
1	1620	1980
1	1620	1981
1	1628	1982
1	1647	1983
1	1674	1984
1	1706	1985
1	1742	1986
1	1777	1987
1	1816	1988
1	1827	1989
1	1834	1990
1	1831	1991
1	1824	1992
1	1822	1993
1	1803	1994
1	1777	1995
1	1746	1996
1	1723	1997
1	1708	1998
1	1703	1999
1	1706	2000
1	1715	2001
1	1736	2002
1	1759	2003
1	1776	2004
1	1798	2005
1	1823	2006
1	1837	2007
1	1854	2008
1	1856	2009
1	1845	2010
1	1826	2011
1	1808	2012
1	1778	2013
1	1756	2014
1	1738	2015
1	1726	2016
1	1730	2017
1	1751	2018
1	1773	2019
1	1813	2020
1	1843	2021
1	1866	2022
1	1881	2023
1	1910	2024
1	1924	2025
1	1948	2026
1	1961	2027
1	1965	2028
1	1965	2029
1	1957	2030
1	1948	2031
1	1924	2032
1	1897	2033
1	1869	2034
1	1844	2035
1	1826	2036
1	1803	2037
1	1791	2038
1	1782	2039
1	1783	2040
1	1791	2041
1	1818	2042
1	1841	2043
1	1859	2044
1	1888	2045
1	1909	2046
1	1926	2047
1	1949	2048
1	1967	2049
1	1972	2050
1	1961	2051
1	1940	2052
1	1909	2053
1	1881	2054
1	1852	2055
1	1826	2056
1	1796	2057
1	1775	2058
1	1752	2059
1	1616	2080
1	1621	2081
1	1635	2082
1	1677	2083
1	1724	2084
1	1768	2085
1	1803	2086
1	1827	2087
1	1834	2088
1	1821	2089
1	1791	2090
1	1754	2091
1	1712	2092
1	1670	2093
1	1625	2094
1	1587	2095
1	1556	2096
1	1529	2097
1	1513	2098
1	1504	2099
1	1734	2060
1	1714	2061
1	1700	2062
1	1698	2063
1	1700	2064
1	1713	2065
1	1740	2066
1	1765	2067
1	1791	2068
1	1799	2069
1	1792	2070
1	1783	2071
1	1764	2072
1	1738	2073
1	1705	2074
1	1668	2075
1	1647	2076
1	1634	2077
1	1628	2078
1	1618	2079
1	1508	2100
1	1521	2101
1	1539	2102
1	1562	2103
1	1590	2104
1	1621	2105
1	1654	2106
1	1676	2107
1	1686	2108
1	1685	2109
1	1679	2110
1	1660	2111
1	1643	2112
1	1633	2113
1	1607	2114
1	1586	2115
1	1574	2116
1	1560	2117
1	1554	2118
1	1551	2119
1	1551	2120
1	1548	2121
1	1556	2122
1	1581	2123
1	1607	2124
1	1634	2125
1	1652	2126
1	1662	2127
1	1670	2128
1	1673	2129
1	1674	2130
1	1666	2131
1	1654	2132
1	1634	2133
1	1602	2134
1	1573	2135
1	1550	2136
1	1531	2137
1	1528	2138
1	1527	2139
1	1536	2140
1	1556	2141
1	1586	2142
1	1631	2143
1	1685	2144
1	1731	2145
1	1773	2146
1	1793	2147
1	1801	2148
1	1791	2149
1	1772	2150
1	1741	2151
1	1712	2152
1	1679	2153
1	1634	2154
1	1587	2155
1	1541	2156
1	1503	2157
1	1488	2158
1	1495	2159
1	1521	2160
1	1555	2161
1	1586	2162
1	1615	2163
1	1647	2164
1	1681	2165
1	1707	2166
1	1724	2167
1	1729	2168
1	1717	2169
1	1708	2170
1	1697	2171
1	1679	2172
1	1654	2173
1	1625	2174
1	1603	2175
1	1599	2176
1	1605	2177
1	1613	2178
1	1633	2179
1	1646	2180
1	1676	2181
1	1715	2182
1	1755	2183
1	1787	2184
1	1808	2185
1	1818	2186
1	1816	2187
1	1801	2188
1	1777	2189
1	1762	2190
1	1738	2191
1	1697	2192
1	1644	2193
1	1590	2194
1	1557	2195
1	1536	2196
1	1530	2197
1	1544	2198
1	1569	2199
1	1603	2200
1	1647	2201
1	1687	2202
1	1727	2203
1	1751	2204
1	1773	2205
1	1802	2206
1	1826	2207
1	1839	2208
1	1838	2209
1	1830	2210
1	1809	2211
1	1776	2212
1	1733	2213
1	1674	2214
1	1625	2215
1	1592	2216
1	1577	2217
1	1577	2218
1	1594	2219
1	1638	2220
1	1696	2221
1	1733	2222
1	1777	2223
1	1795	2224
1	1817	2225
1	1819	2226
1	1814	2227
1	1809	2228
1	1801	2229
1	1791	2230
1	1777	2231
1	1756	2232
1	1747	2233
1	1730	2234
1	1715	2235
1	1700	2236
1	1681	2237
1	1662	2238
1	1660	2239
1	1670	2240
1	1696	2241
1	1728	2242
1	1764	2243
1	1796	2244
1	1825	2245
1	1830	2246
1	1815	2247
1	1799	2248
1	1778	2249
1	1760	2250
1	1744	2251
1	1726	2252
1	1698	2253
1	1665	2254
1	1639	2255
1	1632	2256
1	1626	2257
1	1626	2258
1	1633	2259
1	1652	2260
1	1673	2261
1	1691	2262
1	1719	2263
1	1742	2264
1	1764	2265
1	1781	2266
1	1782	2267
1	1766	2268
1	1734	2269
1	1683	2270
1	1629	2271
1	1575	2272
1	1530	2273
1	1504	2274
1	1503	2275
1	1508	2276
1	1508	2277
1	1526	2278
1	1544	2279
1	1578	2280
1	1608	2281
1	1647	2282
1	1691	2283
1	1739	2284
1	1773	2285
1	1788	2286
1	1790	2287
1	1775	2288
1	1751	2289
1	1717	2290
1	1672	2291
1	1630	2292
1	1602	2293
1	1574	2294
1	1549	2295
1	1538	2296
1	1542	2297
1	1566	2298
1	1589	2299
1	1607	2300
1	1617	2301
1	1625	2302
1	1634	2303
1	1644	2304
1	1664	2305
1	1686	2306
1	1702	2307
1	1714	2308
1	1708	2309
1	1688	2310
1	1652	2311
1	1607	2312
1	1557	2313
1	1511	2314
1	1471	2315
1	1449	2316
1	1446	2317
1	1456	2318
1	1482	2319
1	1512	2340
1	1517	2341
1	1530	2342
1	1548	2343
1	1579	2344
1	1600	2345
1	1616	2346
1	1626	2347
1	1631	2348
1	1616	2349
1	1598	2350
1	1574	2351
1	1553	2352
1	1544	2353
1	1555	2354
1	1574	2355
1	1610	2356
1	1659	2357
1	1712	2358
1	1764	2359
1	1818	2360
1	1869	2361
1	1927	2362
1	1986	2363
1	2035	2364
1	2080	2365
1	2119	2366
1	2144	2367
1	2166	2368
1	2166	2369
1	2158	2370
1	2139	2371
1	2109	2372
1	2070	2373
1	2024	2374
1	1974	2375
1	1922	2376
1	1875	2377
1	1829	2378
1	1769	2379
1	1529	2320
1	1579	2321
1	1621	2322
1	1670	2323
1	1723	2324
1	1757	2325
1	1791	2326
1	1803	2327
1	1801	2328
1	1778	2329
1	1738	2330
1	1699	2331
1	1663	2332
1	1634	2333
1	1608	2334
1	1580	2335
1	1552	2336
1	1530	2337
1	1523	2338
1	1510	2339
1	1489	2400
1	1536	2401
1	1573	2402
1	1602	2403
1	1625	2404
1	1638	2405
1	1634	2406
1	1611	2407
1	1592	2408
1	1572	2409
1	1559	2410
1	1553	2411
1	1542	2412
1	1541	2413
1	1528	2414
1	1513	2415
1	1502	2416
1	1503	2417
1	1508	2418
1	1520	2419
1	1726	2380
1	1695	2381
1	1671	2382
1	1661	2383
1	1647	2384
1	1631	2385
1	1603	2386
1	1567	2387
1	1534	2388
1	1501	2389
1	1463	2390
1	1413	2391
1	1358	2392
1	1319	2393
1	1292	2394
1	1292	2395
1	1317	2396
1	1352	2397
1	1398	2398
1	1436	2399
1	1530	2420
1	1552	2421
1	1574	2422
1	1611	2423
1	1656	2424
1	1688	2425
1	1711	2426
1	1717	2427
1	1721	2428
1	1705	2429
1	1692	2430
1	1681	2431
1	1667	2432
1	1643	2433
1	1616	2434
1	1582	2435
1	1561	2436
1	1559	2437
1	1567	2438
1	1578	2439
1	1594	2440
1	1610	2441
1	1625	2442
1	1644	2443
1	1664	2444
1	1686	2445
1	1712	2446
1	1726	2447
1	1734	2448
1	1728	2449
1	1710	2450
1	1684	2451
1	1652	2452
1	1626	2453
1	1593	2454
1	1567	2455
1	1552	2456
1	1546	2457
1	1560	2458
1	1566	2459
1	1489	2480
1	1531	2481
1	1580	2482
1	1625	2483
1	1660	2484
1	1703	2485
1	1744	2486
1	1770	2487
1	1798	2488
1	1795	2489
1	1778	2490
1	1751	2491
1	1712	2492
1	1667	2493
1	1625	2494
1	1594	2495
1	1580	2496
1	1571	2497
1	1574	2498
1	1581	2499
1	1569	2460
1	1580	2461
1	1590	2462
1	1594	2463
1	1599	2464
1	1606	2465
1	1610	2466
1	1616	2467
1	1618	2468
1	1610	2469
1	1600	2470
1	1580	2471
1	1548	2472
1	1531	2473
1	1513	2474
1	1489	2475
1	1467	2476
1	1451	2477
1	1447	2478
1	1458	2479
1	1604	2500
1	1629	2501
1	1652	2502
1	1686	2503
1	1698	2504
1	1713	2505
1	1734	2506
1	1748	2507
1	1752	2508
1	1743	2509
1	1725	2510
1	1700	2511
1	1683	2512
1	1668	2513
1	1647	2514
1	1631	2515
1	1612	2516
1	1595	2517
1	1594	2518
1	1597	2519
1	1607	2520
1	1631	2521
1	1648	2522
1	1686	2523
1	1710	2524
1	1719	2525
1	1724	2526
1	1733	2527
1	1736	2528
1	1734	2529
1	1716	2530
1	1699	2531
1	1680	2532
1	1659	2533
1	1634	2534
1	1622	2535
1	1618	2536
1	1629	2537
1	1638	2538
1	1654	2539
1	1666	2540
1	1688	2541
1	1710	2542
1	1741	2543
1	1773	2544
1	1799	2545
1	1821	2546
1	1829	2547
1	1821	2548
1	1803	2549
1	1779	2550
1	1744	2551
1	1712	2552
1	1687	2553
1	1672	2554
1	1664	2555
1	1669	2556
1	1682	2557
1	1701	2558
1	1716	2559
1	1686	2580
1	1710	2581
1	1750	2582
1	1797	2583
1	1850	2584
1	1894	2585
1	1922	2586
1	1944	2587
1	1943	2588
1	1922	2589
1	1895	2590
1	1862	2591
1	1831	2592
1	1812	2593
1	1791	2594
1	1775	2595
1	1772	2596
1	1769	2597
1	1769	2598
1	1778	2599
1	1750	2560
1	1790	2561
1	1842	2562
1	1885	2563
1	1917	2564
1	1945	2565
1	1962	2566
1	1973	2567
1	1968	2568
1	1958	2569
1	1945	2570
1	1913	2571
1	1873	2572
1	1831	2573
1	1783	2574
1	1746	2575
1	1712	2576
1	1692	2577
1	1686	2578
1	1682	2579
1	1799	2600
1	1826	2601
1	1855	2602
1	1880	2603
1	1899	2604
1	1926	2605
1	1935	2606
1	1933	2607
1	1919	2608
1	1892	2609
1	1852	2610
1	1817	2611
1	1775	2612
1	1736	2613
1	1688	2614
1	1647	2615
1	1615	2616
1	1582	2617
1	1557	2618
1	1534	2619
1	1533	2620
1	1553	2621
1	1572	2622
1	1599	2623
1	1638	2624
1	1661	2625
1	1688	2626
1	1698	2627
1	1693	2628
1	1673	2629
1	1658	2630
1	1642	2631
1	1607	2632
1	1566	2633
1	1517	2634
1	1485	2635
1	1475	2636
1	1478	2637
1	1494	2638
1	1507	2639
1	1535	2640
1	1566	2641
1	1592	2642
1	1616	2643
1	1639	2644
1	1659	2645
1	1655	2646
1	1641	2647
1	1622	2648
1	1602	2649
1	1581	2650
1	1555	2651
1	1528	2652
1	1502	2653
1	1484	2654
1	1471	2655
1	1465	2656
1	1467	2657
1	1479	2658
1	1492	2659
1	1415	2680
1	1449	2681
1	1492	2682
1	1536	2683
1	1566	2684
1	1594	2685
1	1615	2686
1	1623	2687
1	1632	2688
1	1634	2689
1	1633	2690
1	1621	2691
1	1608	2692
1	1590	2693
1	1554	2694
1	1519	2695
1	1494	2696
1	1487	2697
1	1490	2698
1	1508	2699
1	1503	2660
1	1517	2661
1	1540	2662
1	1569	2663
1	1600	2664
1	1634	2665
1	1652	2666
1	1660	2667
1	1665	2668
1	1658	2669
1	1638	2670
1	1610	2671
1	1577	2672
1	1539	2673
1	1494	2674
1	1459	2675
1	1428	2676
1	1400	2677
1	1395	2678
1	1395	2679
1	1530	2700
1	1560	2701
1	1585	2702
1	1607	2703
1	1620	2704
1	1626	2705
1	1626	2706
1	1625	2707
1	1620	2708
1	1607	2709
1	1590	2710
1	1569	2711
1	1544	2712
1	1526	2713
1	1506	2714
1	1499	2715
1	1487	2716
1	1478	2717
1	1476	2718
1	1476	2719
1	1495	2720
1	1524	2721
1	1539	2722
1	1561	2723
1	1584	2724
1	1604	2725
1	1607	2726
1	1600	2727
1	1598	2728
1	1580	2729
1	1580	2730
1	1581	2731
1	1592	2732
1	1593	2733
1	1594	2734
1	1591	2735
1	1590	2736
1	1581	2737
1	1568	2738
1	1555	2739
1	1544	2740
1	1541	2741
1	1556	2742
1	1581	2743
1	1610	2744
1	1633	2745
1	1647	2746
1	1654	2747
1	1660	2748
1	1655	2749
1	1647	2750
1	1643	2751
1	1628	2752
1	1605	2753
1	1571	2754
1	1538	2755
1	1503	2756
1	1481	2757
1	1474	2758
1	1475	2759
1	1495	2760
1	1533	2761
1	1579	2762
1	1629	2763
1	1683	2764
1	1731	2765
1	1764	2766
1	1775	2767
1	1767	2768
1	1737	2769
1	1695	2770
1	1647	2771
1	1597	2772
1	1562	2773
1	1529	2774
1	1499	2775
1	1477	2776
1	1467	2777
1	1465	2778
1	1474	2779
1	1488	2780
1	1515	2781
1	1548	2782
1	1593	2783
1	1629	2784
1	1665	2785
1	1690	2786
1	1706	2787
1	1713	2788
1	1710	2789
1	1702	2790
1	1693	2791
1	1679	2792
1	1654	2793
1	1626	2794
1	1593	2795
1	1567	2796
1	1556	2797
1	1561	2798
1	1569	2799
1	1581	2800
1	1599	2801
1	1613	2802
1	1634	2803
1	1647	2804
1	1657	2805
1	1658	2806
1	1647	2807
1	1642	2808
1	1631	2809
1	1616	2810
1	1602	2811
1	1583	2812
1	1555	2813
1	1525	2814
1	1502	2815
1	1483	2816
1	1472	2817
1	1463	2818
1	1454	2819
1	1466	2820
1	1490	2821
1	1508	2822
1	1543	2823
1	1570	2824
1	1598	2825
1	1630	2826
1	1644	2827
1	1643	2828
1	1625	2829
1	1596	2830
1	1568	2831
1	1537	2832
1	1508	2833
1	1463	2834
1	1425	2835
1	1384	2836
1	1370	2837
1	1368	2838
1	1374	2839
1	1390	2840
1	1410	2841
1	1434	2842
1	1455	2843
1	1481	2844
1	1511	2845
1	1548	2846
1	1581	2847
1	1595	2848
1	1585	2849
1	1554	2850
1	1514	2851
1	1476	2852
1	1450	2853
1	1427	2854
1	1410	2855
1	1402	2856
1	1402	2857
1	1410	2858
1	1416	2859
1	1434	2860
1	1467	2861
1	1503	2862
1	1543	2863
1	1572	2864
1	1595	2865
1	1607	2866
1	1611	2867
1	1609	2868
1	1598	2869
1	1579	2870
1	1555	2871
1	1528	2872
1	1503	2873
1	1476	2874
1	1445	2875
1	1419	2876
1	1397	2877
1	1381	2878
1	1374	2879
1	1384	2880
1	1411	2881
1	1438	2882
1	1469	2883
1	1495	2884
1	1512	2885
1	1518	2886
1	1520	2887
1	1508	2888
1	1485	2889
1	1468	2890
1	1455	2891
1	1438	2892
1	1427	2893
1	1414	2894
1	1400	2895
1	1396	2896
1	1398	2897
1	1415	2898
1	1432	2899
1	1450	2900
1	1476	2901
1	1505	2902
1	1539	2903
1	1562	2904
1	1586	2905
1	1603	2906
1	1616	2907
1	1629	2908
1	1656	2909
1	1686	2910
1	1712	2911
1	1730	2912
1	1742	2913
1	1751	2914
1	1764	2915
1	1779	2916
1	1803	2917
1	1837	2918
1	1865	2919
1	1299	2940
1	1297	2941
1	1311	2942
1	1319	2943
1	1328	2944
1	1348	2945
1	1371	2946
1	1384	2947
1	1401	2948
1	1409	2949
1	1409	2950
1	1384	2951
1	1356	2952
1	1335	2953
1	1328	2954
1	1322	2955
1	1332	2956
1	1341	2957
1	1358	2958
1	1382	2959
1	1909	2920
1	1943	2921
1	1953	2922
1	1960	2923
1	1974	2924
1	1970	2925
1	1953	2926
1	1922	2927
1	1869	2928
1	1808	2929
1	1733	2930
1	1657	2931
1	1585	2932
1	1530	2933
1	1485	2934
1	1448	2935
1	1415	2936
1	1377	2937
1	1350	2938
1	1318	2939
1	1384	2980
1	1417	2981
1	1450	2982
1	1490	2983
1	1520	2984
1	1542	2985
1	1553	2986
1	1559	2987
1	1570	2988
1	1574	2989
1	1573	2990
1	1560	2991
1	1539	2992
1	1503	2993
1	1451	2994
1	1406	2995
1	1369	2996
1	1350	2997
1	1355	2998
1	1374	2999
1	1416	2960
1	1449	2961
1	1481	2962
1	1503	2963
1	1510	2964
1	1524	2965
1	1529	2966
1	1526	2967
1	1516	2968
1	1499	2969
1	1485	2970
1	1481	2971
1	1472	2972
1	1446	2973
1	1411	2974
1	1381	2975
1	1364	2976
1	1360	2977
1	1362	2978
1	1364	2979
1	1412	3000
1	1446	3001
1	1479	3002
1	1510	3003
1	1530	3004
1	1535	3005
1	1541	3006
1	1541	3007
1	1530	3008
1	1508	3009
1	1486	3010
1	1465	3011
1	1448	3012
1	1441	3013
1	1424	3014
1	1400	3015
1	1378	3016
1	1373	3017
1	1381	3018
1	1400	3019
1	1430	3020
1	1458	3021
1	1481	3022
1	1508	3023
1	1530	3024
1	1555	3025
1	1570	3026
1	1574	3027
1	1569	3028
1	1550	3029
1	1531	3030
1	1505	3031
1	1489	3032
1	1469	3033
1	1446	3034
1	1421	3035
1	1400	3036
1	1394	3037
1	1392	3038
1	1398	3039
1	1419	3040
1	1450	3041
1	1480	3042
1	1507	3043
1	1541	3044
1	1564	3045
1	1579	3046
1	1580	3047
1	1583	3048
1	1584	3049
1	1568	3050
1	1543	3051
1	1513	3052
1	1472	3053
1	1419	3054
1	1376	3055
1	1351	3056
1	1346	3057
1	1363	3058
1	1394	3059
1	1436	3060
1	1487	3061
1	1531	3062
1	1573	3063
1	1607	3064
1	1643	3065
1	1662	3066
1	1669	3067
1	1662	3068
1	1637	3069
1	1603	3070
1	1562	3071
1	1520	3072
1	1487	3073
1	1462	3074
1	1448	3075
1	1440	3076
1	1446	3077
1	1455	3078
1	1479	3079
1	1581	3100
1	1620	3101
1	1664	3102
1	1713	3103
1	1764	3104
1	1800	3105
1	1819	3106
1	1823	3107
1	1816	3108
1	1790	3109
1	1764	3110
1	1738	3111
1	1694	3112
1	1652	3113
1	1618	3114
1	1611	3115
1	1616	3116
1	1621	3117
1	1637	3118
1	1655	3119
1	1507	3080
1	1536	3081
1	1561	3082
1	1584	3083
1	1603	3084
1	1607	3085
1	1611	3086
1	1611	3087
1	1607	3088
1	1591	3089
1	1576	3090
1	1558	3091
1	1541	3092
1	1518	3093
1	1497	3094
1	1481	3095
1	1476	3096
1	1490	3097
1	1515	3098
1	1544	3099
1	1683	3120
1	1716	3121
1	1737	3122
1	1756	3123
1	1751	3124
1	1746	3125
1	1741	3126
1	1741	3127
1	1747	3128
1	1738	3129
1	1724	3130
1	1702	3131
1	1677	3132
1	1661	3133
1	1646	3134
1	1646	3135
1	1641	3136
1	1639	3137
1	1636	3138
1	1647	3139
1	1540	3160
1	1535	3161
1	1536	3162
1	1556	3163
1	1581	3164
1	1602	3165
1	1625	3166
1	1647	3167
1	1670	3168
1	1684	3169
1	1693	3170
1	1692	3171
1	1686	3172
1	1681	3173
1	1662	3174
1	1643	3175
1	1616	3176
1	1582	3177
1	1566	3178
1	1554	3179
1	1660	3140
1	1675	3141
1	1699	3142
1	1722	3143
1	1737	3144
1	1749	3145
1	1760	3146
1	1773	3147
1	1778	3148
1	1781	3149
1	1764	3150
1	1746	3151
1	1725	3152
1	1701	3153
1	1678	3154
1	1649	3155
1	1628	3156
1	1600	3157
1	1571	3158
1	1552	3159
1	1542	3180
1	1530	3181
1	1531	3182
1	1534	3183
1	1543	3184
1	1555	3185
1	1564	3186
1	1568	3187
1	1557	3188
1	1531	3189
1	1502	3190
1	1469	3191
1	1427	3192
1	1383	3193
1	1349	3194
1	1332	3195
1	1331	3196
1	1337	3197
1	1357	3198
1	1384	3199
1	1432	3200
1	1487	3201
1	1538	3202
1	1572	3203
1	1589	3204
1	1607	3205
1	1621	3206
1	1625	3207
1	1623	3208
1	1598	3209
1	1558	3210
1	1513	3211
1	1460	3212
1	1412	3213
1	1359	3214
1	1323	3215
1	1296	3216
1	1288	3217
1	1295	3218
1	1330	3219
1	1373	3220
1	1422	3221
1	1450	3222
1	1482	3223
1	1504	3224
1	1529	3225
1	1545	3226
1	1556	3227
1	1555	3228
1	1544	3229
1	1521	3230
1	1490	3231
1	1462	3232
1	1445	3233
1	1427	3234
1	1419	3235
1	1422	3236
1	1429	3237
1	1448	3238
1	1467	3239
1	1490	3240
1	1529	3241
1	1566	3242
1	1602	3243
1	1620	3244
1	1626	3245
1	1620	3246
1	1594	3247
1	1566	3248
1	1527	3249
1	1498	3250
1	1481	3251
1	1466	3252
1	1449	3253
1	1438	3254
1	1423	3255
1	1405	3256
1	1394	3257
1	1399	3258
1	1418	3259
1	1436	3260
1	1456	3261
1	1479	3262
1	1501	3263
1	1524	3264
1	1546	3265
1	1562	3266
1	1574	3267
1	1589	3268
1	1592	3269
1	1573	3270
1	1553	3271
1	1525	3272
1	1494	3273
1	1476	3274
1	1463	3275
1	1450	3276
1	1453	3277
1	1473	3278
1	1489	3279
1	1508	3300
1	1533	3301
1	1554	3302
1	1570	3303
1	1581	3304
1	1593	3305
1	1597	3306
1	1594	3307
1	1582	3308
1	1553	3309
1	1507	3310
1	1452	3311
1	1403	3312
1	1355	3313
1	1319	3314
1	1309	3315
1	1319	3316
1	1342	3317
1	1373	3318
1	1420	3319
1	1471	3300
1	1517	3301
1	1559	3302
1	1599	3303
1	1633	3304
1	1660	3305
1	1678	3306
1	1688	3307
1	1688	3308
1	1664	3309
1	1638	3310
1	1605	3311
1	1561	3312
1	1529	3313
1	1504	3314
1	1505	3315
1	1515	3316
1	1530	3317
1	1551	3318
1	1571	3319
1	1425	3340
1	1468	3341
1	1513	3342
1	1567	3343
1	1610	3344
1	1636	3345
1	1660	3346
1	1684	3347
1	1693	3348
1	1683	3349
1	1656	3350
1	1626	3351
1	1602	3352
1	1586	3353
1	1574	3354
1	1558	3355
1	1544	3356
1	1531	3357
1	1540	3358
1	1554	3359
1	1598	3320
1	1625	3321
1	1647	3322
1	1682	3323
1	1712	3324
1	1728	3325
1	1731	3326
1	1731	3327
1	1720	3328
1	1682	3329
1	1636	3330
1	1580	3331
1	1525	3332
1	1467	3333
1	1415	3334
1	1374	3335
1	1358	3336
1	1355	3337
1	1370	3338
1	1393	3339
1	1580	3360
1	1607	3361
1	1642	3362
1	1679	3363
1	1710	3364
1	1728	3365
1	1721	3366
1	1700	3367
1	1660	3368
1	1606	3369
1	1547	3370
1	1483	3371
1	1427	3372
1	1382	3373
1	1348	3374
1	1336	3375
1	1332	3376
1	1333	3377
1	1343	3378
1	1359	3379
1	1490	3400
1	1507	3401
1	1520	3402
1	1534	3403
1	1555	3404
1	1563	3405
1	1556	3406
1	1543	3407
1	1526	3408
1	1494	3409
1	1455	3410
1	1421	3411
1	1384	3412
1	1363	3413
1	1346	3414
1	1344	3415
1	1346	3416
1	1358	3417
1	1384	3418
1	1419	3419
1	1395	3400
1	1435	3401
1	1482	3402
1	1536	3403
1	1586	3404
1	1628	3405
1	1657	3406
1	1664	3407
1	1660	3408
1	1625	3409
1	1580	3410
1	1530	3411
1	1485	3412
1	1448	3413
1	1422	3414
1	1407	3415
1	1409	3416
1	1424	3417
1	1449	3418
1	1466	3419
1	1454	3420
1	1487	3421
1	1508	3422
1	1539	3423
1	1549	3424
1	1553	3425
1	1543	3426
1	1530	3427
1	1510	3428
1	1478	3429
1	1449	3430
1	1413	3431
1	1381	3432
1	1372	3433
1	1347	3434
1	1346	3435
1	1355	3436
1	1380	3437
1	1405	3438
1	1431	3439
1	1465	3440
1	1503	3441
1	1530	3442
1	1553	3443
1	1556	3444
1	1559	3445
1	1558	3446
1	1553	3447
1	1538	3448
1	1526	3449
1	1503	3450
1	1469	3451
1	1422	3452
1	1364	3453
1	1328	3454
1	1307	3455
1	1294	3456
1	1291	3457
1	1307	3458
1	1341	3459
1	1400	3460
1	1469	3461
1	1537	3462
1	1613	3463
1	1685	3464
1	1746	3465
1	1800	3466
1	1855	3467
1	1903	3468
1	1946	3469
1	1974	3470
1	1999	3471
1	2013	3472
1	2016	3473
1	1998	3474
1	1959	3475
1	1914	3476
1	1879	3477
1	1856	3478
1	1819	3479
1	1781	3480
1	1752	3481
1	1721	3482
1	1692	3483
1	1669	3484
1	1644	3485
1	1607	3486
1	1556	3487
1	1508	3488
1	1451	3489
1	1399	3490
1	1330	3491
1	1260	3492
1	1202	3493
1	1155	3494
1	1125	3495
1	1111	3496
1	1110	3497
1	1131	3498
1	1168	3499
1	1217	3500
1	1262	3501
1	1302	3502
1	1346	3503
1	1391	3504
1	1428	3505
1	1474	3506
1	1504	3507
1	1534	3508
1	1550	3509
1	1544	3510
1	1520	3511
1	1481	3512
1	1437	3513
1	1400	3514
1	1366	3515
1	1346	3516
1	1346	3517
1	1357	3518
1	1369	3519
1	1399	3520
1	1436	3521
1	1463	3522
1	1481	3523
1	1490	3524
1	1494	3525
1	1503	3526
1	1518	3527
1	1520	3528
1	1508	3529
1	1500	3530
1	1490	3531
1	1476	3532
1	1450	3533
1	1417	3534
1	1384	3535
1	1368	3536
1	1356	3537
1	1359	3538
1	1346	3539
1	1353	3540
1	1357	3541
1	1374	3542
1	1395	3543
1	1419	3544
1	1450	3545
1	1474	3546
1	1481	3547
1	1478	3548
1	1465	3549
1	1452	3550
1	1450	3551
1	1445	3552
1	1442	3553
1	1433	3554
1	1427	3555
1	1424	3556
1	1413	3557
1	1413	3558
1	1419	3559
1	1426	3560
1	1438	3561
1	1448	3562
1	1460	3563
1	1476	3564
1	1490	3565
1	1503	3566
1	1517	3567
1	1517	3568
1	1513	3569
1	1503	3570
1	1490	3571
1	1476	3572
1	1467	3573
1	1463	3574
1	1446	3575
1	1431	3576
1	1420	3577
1	1406	3578
1	1410	3579
1	1420	3580
1	1446	3581
1	1481	3582
1	1529	3583
1	1564	3584
1	1593	3585
1	1616	3586
1	1625	3587
1	1615	3588
1	1587	3589
1	1550	3590
1	1503	3591
1	1462	3592
1	1427	3593
1	1405	3594
1	1398	3595
1	1392	3596
1	1382	3597
1	1396	3598
1	1422	3599
1	1450	3600
1	1487	3601
1	1520	3602
1	1544	3603
1	1562	3604
1	1568	3605
1	1566	3606
1	1557	3607
1	1550	3608
1	1540	3609
1	1529	3610
1	1527	3611
1	1518	3612
1	1512	3613
1	1503	3614
1	1499	3615
1	1498	3616
1	1494	3617
1	1495	3618
1	1494	3619
1	1502	3620
1	1520	3621
1	1539	3622
1	1561	3623
1	1589	3624
1	1608	3625
1	1621	3626
1	1628	3627
1	1633	3628
1	1607	3629
1	1593	3630
1	1575	3631
1	1561	3632
1	1553	3633
1	1544	3634
1	1541	3635
1	1539	3636
1	1538	3637
1	1553	3638
1	1557	3639
1	1695	3660
1	1730	3661
1	1764	3662
1	1795	3663
1	1822	3664
1	1832	3665
1	1828	3666
1	1818	3667
1	1808	3668
1	1791	3669
1	1782	3670
1	1767	3671
1	1748	3672
1	1728	3673
1	1707	3674
1	1690	3675
1	1683	3676
1	1672	3677
1	1674	3678
1	1675	3679
1	1692	3680
1	1724	3681
1	1751	3682
1	1775	3683
1	1789	3684
1	1795	3685
1	1798	3686
1	1793	3687
1	1811	3688
1	1817	3689
1	1817	3690
1	1801	3691
1	1792	3692
1	1785	3693
1	1768	3694
1	1751	3695
1	1737	3696
1	1738	3697
1	1752	3698
1	1767	3699
1	1778	3700
1	1791	3701
1	1800	3702
1	1821	3703
1	1843	3704
1	1854	3705
1	1852	3706
1	1838	3707
1	1800	3708
1	1755	3709
1	1718	3710
1	1684	3711
1	1652	3712
1	1629	3713
1	1600	3714
1	1586	3715
1	1589	3716
1	1598	3717
1	1626	3718
1	1658	3719
1	1575	3640
1	1598	3641
1	1617	3642
1	1625	3643
1	1634	3644
1	1639	3645
1	1651	3646
1	1679	3647
1	1708	3648
1	1730	3649
1	1744	3650
1	1751	3651
1	1744	3652
1	1726	3653
1	1687	3654
1	1664	3655
1	1647	3656
1	1638	3657
1	1650	3658
1	1663	3659
1	1690	3720
1	1719	3721
1	1743	3722
1	1762	3723
1	1764	3724
1	1755	3725
1	1737	3726
1	1710	3727
1	1678	3728
1	1647	3729
1	1625	3730
1	1607	3731
1	1584	3732
1	1561	3733
1	1529	3734
1	1508	3735
1	1490	3736
1	1487	3737
1	1486	3738
1	1498	3739
1	1517	3740
1	1547	3741
1	1580	3742
1	1610	3743
1	1635	3744
1	1654	3745
1	1659	3746
1	1654	3747
1	1638	3748
1	1626	3749
1	1602	3750
1	1574	3751
1	1543	3752
1	1510	3753
1	1477	3754
1	1454	3755
1	1451	3756
1	1455	3757
1	1473	3758
1	1486	3759
1	1503	3760
1	1527	3761
1	1553	3762
1	1584	3763
1	1605	3764
1	1620	3765
1	1637	3766
1	1647	3767
1	1646	3768
1	1634	3769
1	1621	3770
1	1607	3771
1	1583	3772
1	1559	3773
1	1537	3774
1	1529	3775
1	1527	3776
1	1524	3777
1	1529	3778
1	1535	3779
1	1549	3780
1	1566	3781
1	1589	3782
1	1619	3783
1	1644	3784
1	1667	3785
1	1680	3786
1	1680	3787
1	1671	3788
1	1644	3789
1	1615	3790
1	1585	3791
1	1555	3792
1	1528	3793
1	1481	3794
1	1436	3795
1	1398	3796
1	1364	3797
1	1351	3798
1	1367	3799
1	1405	3800
1	1448	3801
1	1490	3802
1	1530	3803
1	1569	3804
1	1605	3805
1	1634	3806
1	1641	3807
1	1624	3808
1	1604	3809
1	1585	3810
1	1581	3811
1	1580	3812
1	1577	3813
1	1569	3814
1	1555	3815
1	1547	3816
1	1546	3817
1	1543	3818
1	1534	3819
1	1541	3820
1	1550	3821
1	1557	3822
1	1580	3823
1	1603	3824
1	1607	3825
1	1608	3826
1	1616	3827
1	1615	3828
1	1615	3829
1	1619	3830
1	1625	3831
1	1623	3832
1	1610	3833
1	1593	3834
1	1580	3835
1	1563	3836
1	1557	3837
1	1570	3838
1	1574	3839
1	1596	3840
1	1629	3841
1	1661	3842
1	1688	3843
1	1713	3844
1	1738	3845
1	1747	3846
1	1748	3847
1	1737	3848
1	1711	3849
1	1679	3850
1	1642	3851
1	1606	3852
1	1564	3853
1	1530	3854
1	1490	3855
1	1453	3856
1	1430	3857
1	1424	3858
1	1440	3859
1	1472	3860
1	1513	3861
1	1570	3862
1	1633	3863
1	1677	3864
1	1715	3865
1	1744	3866
1	1760	3867
1	1764	3868
1	1747	3869
1	1720	3870
1	1686	3871
1	1646	3872
1	1609	3873
1	1577	3874
1	1547	3875
1	1525	3876
1	1509	3877
1	1503	3878
1	1503	3879
1	1526	3880
1	1557	3881
1	1602	3882
1	1651	3883
1	1687	3884
1	1715	3885
1	1733	3886
1	1731	3887
1	1713	3888
1	1688	3889
1	1660	3890
1	1629	3891
1	1606	3892
1	1592	3893
1	1587	3894
1	1597	3895
1	1616	3896
1	1638	3897
1	1663	3898
1	1685	3899
1	1690	3900
1	1690	3901
1	1692	3902
1	1697	3903
1	1698	3904
1	1694	3905
1	1686	3906
1	1670	3907
1	1656	3908
1	1634	3909
1	1620	3910
1	1609	3911
1	1610	3912
1	1629	3913
1	1635	3914
1	1642	3915
1	1644	3916
1	1652	3917
1	1671	3918
1	1688	3919
1	1610	3940
1	1622	3941
1	1629	3942
1	1634	3943
1	1629	3944
1	1629	3945
1	1631	3946
1	1636	3947
1	1638	3948
1	1631	3949
1	1611	3950
1	1589	3951
1	1567	3952
1	1549	3953
1	1535	3954
1	1529	3955
1	1529	3956
1	1533	3957
1	1541	3958
1	1557	3959
1	1709	3920
1	1724	3921
1	1728	3922
1	1736	3923
1	1733	3924
1	1726	3925
1	1729	3926
1	1737	3927
1	1746	3928
1	1733	3929
1	1726	3930
1	1716	3931
1	1711	3932
1	1699	3933
1	1684	3934
1	1660	3935
1	1641	3936
1	1626	3937
1	1619	3938
1	1607	3939
1	1571	3960
1	1582	3961
1	1607	3962
1	1634	3963
1	1660	3964
1	1677	3965
1	1686	3966
1	1688	3967
1	1685	3968
1	1657	3969
1	1616	3970
1	1566	3971
1	1512	3972
1	1469	3973
1	1439	3974
1	1424	3975
1	1422	3976
1	1422	3977
1	1428	3978
1	1455	3979
1	1490	3980
1	1529	3981
1	1572	3982
1	1611	3983
1	1644	3984
1	1674	3985
1	1690	3986
1	1699	3987
1	1700	3988
1	1675	3989
1	1633	3990
1	1573	3991
1	1520	3992
1	1476	3993
1	1451	3994
1	1443	3995
1	1443	3996
1	1449	3997
1	1458	3998
1	1469	3999
1	1497	4000
1	1542	4001
1	1587	4002
1	1633	4003
1	1672	4004
1	1701	4005
1	1725	4006
1	1740	4006
1	1738	4008
1	1717	4009
1	1685	4010
1	1638	4011
1	1595	4012
1	1555	4013
1	1522	4014
1	1499	4014
1	1479	4016
1	1476	4017
1	1485	4018
1	1492	4019
1	1503	4020
1	1517	4021
1	1534	4022
1	1555	4022
1	1573	4024
1	1595	4025
1	1604	4026
1	1607	4027
1	1608	4028
1	1612	4029
1	1627	4030
1	1638	4030
1	1649	4032
1	1672	4033
1	1681	4034
1	1706	4035
1	1744	4036
1	1799	4037
1	1850	4038
1	1902	4038
1	1959	4040
1	2019	4041
1	2070	4042
1	2107	4043
1	2118	4044
1	2112	4045
1	2092	4046
1	2055	4046
1	2009	4048
1	1960	4049
1	1903	4050
1	1846	4051
1	1790	4052
1	1737	4053
1	1683	4054
1	1634	4054
1	1593	4056
1	1553	4057
1	1529	4058
1	1517	4059
1	1521	4060
1	1531	4061
1	1542	4062
1	1554	4062
1	1556	4064
1	1552	4065
1	1531	4066
1	1511	4067
1	1479	4068
1	1449	4069
1	1414	4070
1	1384	4070
1	1371	4072
1	1359	4073
1	1353	4074
1	1359	4075
1	1382	4076
1	1412	4077
1	1446	4078
1	1482	4078
1	1517	4080
1	1552	4081
1	1589	4082
1	1622	4083
1	1643	4084
1	1652	4085
1	1659	4086
1	1666	4086
1	1675	4088
1	1679	4089
1	1675	4090
1	1665	4091
1	1652	4092
1	1643	4093
1	1629	4094
1	1616	4094
1	1607	4096
1	1607	4097
1	1607	4098
1	1608	4099
1	1608	4100
1	1608	4101
1	1611	4102
1	1607	4103
1	1592	4104
1	1581	4105
1	1572	4106
1	1571	4107
1	1580	4108
1	1580	4109
1	1573	4110
1	1552	4111
1	1525	4112
1	1503	4113
1	1495	4114
1	1500	4115
1	1512	4116
1	1527	4117
1	1546	4118
1	1567	4119
1	1593	4120
1	1611	4121
1	1628	4122
1	1634	4123
1	1643	4124
1	1643	4125
1	1637	4126
1	1634	4127
1	1610	4128
1	1580	4129
1	1548	4130
1	1512	4131
1	1487	4132
1	1471	4133
1	1467	4134
1	1469	4135
1	1476	4136
1	1489	4137
1	1515	4138
1	1531	4139
1	1569	4140
1	1611	4141
1	1658	4142
1	1690	4143
1	1714	4144
1	1724	4145
1	1734	4146
1	1742	4147
1	1745	4148
1	1738	4149
1	1723	4150
1	1692	4151
1	1658	4152
1	1612	4153
1	1580	4154
1	1546	4155
1	1525	4156
1	1515	4157
1	1523	4158
1	1541	4159
1	1581	4180
1	1605	4181
1	1621	4182
1	1644	4183
1	1670	4184
1	1694	4185
1	1714	4186
1	1729	4187
1	1736	4188
1	1729	4189
1	1715	4190
1	1692	4191
1	1661	4192
1	1634	4193
1	1620	4194
1	1605	4195
1	1587	4196
1	1581	4197
1	1600	4198
1	1625	4199
1	1652	4200
1	1686	4201
1	1710	4202
1	1728	4203
1	1746	4204
1	1764	4205
1	1775	4206
1	1777	4207
1	1777	4208
1	1764	4209
1	1743	4210
1	1716	4211
1	1701	4212
1	1693	4213
1	1682	4214
1	1672	4215
1	1665	4216
1	1673	4217
1	1688	4218
1	1710	4219
1	1569	4160
1	1605	4161
1	1647	4162
1	1692	4163
1	1713	4164
1	1727	4165
1	1731	4166
1	1723	4167
1	1713	4168
1	1697	4169
1	1668	4170
1	1634	4171
1	1594	4172
1	1556	4173
1	1531	4174
1	1517	4175
1	1518	4176
1	1531	4177
1	1544	4178
1	1557	4179
1	1738	4220
1	1764	4221
1	1770	4222
1	1783	4223
1	1791	4224
1	1795	4225
1	1793	4226
1	1789	4227
1	1782	4228
1	1763	4229
1	1743	4230
1	1731	4231
1	1720	4232
1	1724	4233
1	1730	4234
1	1738	4235
1	1744	4236
1	1760	4237
1	1773	4238
1	1800	4239
1	1849	4240
1	1895	4241
1	1935	4242
1	1961	4243
1	1985	4244
1	1994	4245
1	1989	4246
1	1970	4247
1	1937	4248
1	1895	4249
1	1848	4250
1	1789	4251
1	1742	4252
1	1724	4253
1	1716	4254
1	1727	4255
1	1738	4256
1	1751	4257
1	1778	4258
1	1813	4259
1	1855	4260
1	1898	4261
1	1944	4262
1	1982	4263
1	2016	4264
1	2038	4265
1	2048	4266
1	2044	4267
1	2032	4268
1	2009	4269
1	1980	4270
1	1953	4271
1	1913	4272
1	1869	4273
1	1825	4274
1	1778	4275
1	1739	4276
1	1710	4277
1	1688	4278
1	1688	4279
1	1695	4280
1	1712	4281
1	1738	4282
1	1752	4283
1	1759	4284
1	1755	4285
1	1764	4286
1	1767	4287
1	1772	4288
1	1769	4289
1	1757	4290
1	1737	4291
1	1703	4292
1	1674	4293
1	1647	4294
1	1625	4295
1	1607	4296
1	1612	4297
1	1631	4298
1	1647	4299
1	1677	4300
1	1697	4301
1	1710	4302
1	1730	4303
1	1742	4304
1	1755	4305
1	1766	4306
1	1773	4307
1	1771	4308
1	1763	4309
1	1747	4310
1	1724	4311
1	1686	4312
1	1650	4313
1	1616	4314
1	1599	4315
1	1604	4316
1	1625	4317
1	1648	4318
1	1665	4319
1	1677	4320
1	1686	4321
1	1695	4322
1	1694	4323
1	1686	4324
1	1674	4325
1	1656	4326
1	1634	4327
1	1616	4328
1	1607	4329
1	1598	4330
1	1585	4331
1	1563	4332
1	1541	4333
1	1513	4334
1	1503	4335
1	1503	4336
1	1509	4337
1	1533	4338
1	1559	4339
1	1627	4360
1	1667	4361
1	1698	4362
1	1738	4363
1	1766	4364
1	1792	4365
1	1801	4366
1	1791	4367
1	1764	4368
1	1724	4369
1	1675	4370
1	1624	4371
1	1574	4372
1	1537	4373
1	1512	4374
1	1503	4375
1	1503	4376
1	1512	4377
1	1535	4378
1	1557	4379
1	1597	4340
1	1639	4341
1	1677	4342
1	1710	4343
1	1731	4344
1	1746	4345
1	1747	4346
1	1717	4347
1	1663	4348
1	1609	4349
1	1553	4350
1	1499	4351
1	1453	4352
1	1433	4353
1	1437	4354
1	1455	4355
1	1485	4356
1	1519	4357
1	1557	4358
1	1586	4359
1	1593	4380
1	1629	4381
1	1659	4382
1	1686	4383
1	1711	4384
1	1724	4385
1	1734	4386
1	1728	4387
1	1712	4388
1	1685	4389
1	1657	4390
1	1624	4391
1	1584	4392
1	1553	4393
1	1517	4394
1	1498	4395
1	1499	4396
1	1508	4397
1	1529	4398
1	1553	4399
1	1580	4400
1	1610	4401
1	1638	4402
1	1660	4403
1	1682	4404
1	1710	4405
1	1738	4406
1	1763	4407
1	1779	4408
1	1779	4409
1	1765	4410
1	1747	4411
1	1722	4412
1	1690	4413
1	1659	4414
1	1634	4415
1	1622	4416
1	1609	4417
1	1608	4418
1	1618	4419
1	1618	4440
1	1638	4441
1	1669	4442
1	1688	4443
1	1703	4444
1	1711	4445
1	1715	4446
1	1724	4447
1	1723	4448
1	1713	4449
1	1690	4450
1	1658	4451
1	1617	4452
1	1580	4453
1	1559	4454
1	1556	4455
1	1567	4456
1	1581	4457
1	1600	4458
1	1613	4459
1	1634	4420
1	1638	4421
1	1643	4422
1	1648	4423
1	1665	4424
1	1678	4425
1	1689	4426
1	1712	4427
1	1719	4428
1	1703	4429
1	1661	4430
1	1625	4431
1	1590	4432
1	1567	4433
1	1551	4434
1	1546	4435
1	1555	4436
1	1569	4437
1	1589	4438
1	1599	4439
1	1633	4460
1	1649	4461
1	1677	4462
1	1706	4463
1	1718	4464
1	1726	4465
1	1724	4466
1	1719	4467
1	1710	4468
1	1687	4469
1	1669	4470
1	1647	4471
1	1621	4472
1	1596	4473
1	1586	4474
1	1589	4475
1	1597	4476
1	1607	4477
1	1619	4478
1	1634	4479
1	1660	4480
1	1688	4481
1	1712	4482
1	1741	4483
1	1762	4484
1	1775	4485
1	1778	4486
1	1775	4487
1	1773	4488
1	1759	4489
1	1738	4490
1	1701	4491
1	1662	4492
1	1618	4493
1	1593	4494
1	1572	4495
1	1556	4496
1	1561	4497
1	1582	4498
1	1611	4499
1	1649	4500
1	1686	4501
1	1715	4502
1	1751	4503
1	1786	4504
1	1817	4505
1	1831	4506
1	1830	4507
1	1816	4508
1	1808	4509
1	1791	4510
1	1774	4511
1	1743	4512
1	1708	4513
1	1670	4514
1	1638	4515
1	1620	4516
1	1605	4517
1	1593	4518
1	1589	4519
1	1530	4540
1	1557	4541
1	1589	4542
1	1620	4543
1	1644	4544
1	1656	4545
1	1652	4546
1	1635	4547
1	1618	4548
1	1603	4549
1	1593	4550
1	1596	4551
1	1598	4552
1	1592	4553
1	1586	4554
1	1580	4555
1	1571	4556
1	1566	4557
1	1567	4558
1	1587	4559
1	1593	4520
1	1612	4521
1	1641	4522
1	1673	4523
1	1707	4524
1	1738	4525
1	1764	4526
1	1787	4527
1	1796	4528
1	1786	4529
1	1765	4530
1	1733	4531
1	1699	4532
1	1636	4533
1	1607	4534
1	1566	4535
1	1529	4536
1	1503	4537
1	1502	4538
1	1508	4539
1	1607	4560
1	1625	4561
1	1639	4562
1	1650	4563
1	1659	4564
1	1659	4565
1	1660	4566
1	1663	4567
1	1659	4568
1	1651	4569
1	1630	4570
1	1602	4571
1	1569	4572
1	1545	4573
1	1530	4574
1	1524	4575
1	1529	4576
1	1541	4577
1	1560	4578
1	1592	4579
1	1621	4580
1	1647	4581
1	1675	4582
1	1690	4583
1	1697	4584
1	1697	4585
1	1684	4586
1	1660	4587
1	1650	4588
1	1638	4589
1	1621	4590
1	1596	4591
1	1561	4592
1	1531	4593
1	1508	4594
1	1487	4595
1	1484	4596
1	1503	4597
1	1529	4598
1	1555	4599
1	1593	4600
1	1634	4601
1	1669	4602
1	1706	4603
1	1724	4604
1	1729	4605
1	1721	4606
1	1698	4607
1	1661	4608
1	1625	4609
1	1592	4610
1	1557	4611
1	1528	4612
1	1492	4613
1	1472	4614
1	1461	4615
1	1466	4616
1	1481	4617
1	1520	4618
1	1560	4619
1	1616	4620
1	1677	4621
1	1742	4622
1	1816	4623
1	1881	4624
1	1940	4625
1	1983	4626
1	2021	4627
1	2043	4628
1	2056	4629
1	2063	4630
1	2070	4631
1	2065	4632
1	2055	4633
1	2040	4634
1	2030	4635
1	2021	4636
1	2018	4637
1	2001	4638
1	1986	4639
1	1384	4660
1	1454	4661
1	1529	4662
1	1598	4663
1	1663	4664
1	1717	4665
1	1749	4666
1	1760	4667
1	1753	4668
1	1738	4669
1	1712	4670
1	1673	4671
1	1612	4672
1	1555	4673
1	1503	4674
1	1465	4675
1	1443	4676
1	1440	4677
1	1445	4678
1	1473	4679
1	1974	4640
1	1949	4641
1	1913	4642
1	1845	4643
1	1794	4644
1	1726	4645
1	1657	4646
1	1586	4647
1	1521	4648
1	1450	4649
1	1395	4650
1	1346	4651
1	1313	4652
1	1287	4653
1	1271	4654
1	1263	4655
1	1255	4656
1	1263	4657
1	1293	4658
1	1330	4659
1	1505	4680
1	1550	4681
1	1590	4682
1	1613	4683
1	1629	4684
1	1634	4685
1	1631	4686
1	1610	4687
1	1579	4688
1	1559	4689
1	1550	4690
1	1540	4691
1	1529	4692
1	1521	4693
1	1518	4694
1	1528	4695
1	1545	4696
1	1572	4697
1	1607	4698
1	1641	4699
1	1662	4700
1	1692	4701
1	1712	4702
1	1713	4703
1	1709	4704
1	1691	4705
1	1674	4706
1	1661	4707
1	1647	4708
1	1646	4709
1	1638	4710
1	1618	4711
1	1595	4712
1	1577	4713
1	1560	4714
1	1551	4715
1	1543	4716
1	1549	4717
1	1566	4718
1	1593	4719
1	1634	4720
1	1673	4721
1	1703	4722
1	1717	4723
1	1731	4724
1	1727	4725
1	1723	4726
1	1713	4727
1	1682	4728
1	1646	4729
1	1610	4730
1	1577	4731
1	1550	4732
1	1530	4733
1	1525	4734
1	1529	4735
1	1534	4736
1	1549	4737
1	1569	4738
1	1586	4739
1	1610	4740
1	1634	4741
1	1661	4742
1	1691	4743
1	1723	4744
1	1739	4745
1	1738	4746
1	1721	4747
1	1699	4748
1	1678	4749
1	1664	4750
1	1648	4751
1	1620	4752
1	1583	4753
1	1561	4754
1	1538	4755
1	1525	4756
1	1522	4757
1	1525	4758
1	1537	4759
1	1569	4760
1	1607	4761
1	1642	4762
1	1691	4763
1	1733	4764
1	1769	4765
1	1808	4766
1	1828	4767
1	1826	4768
1	1802	4769
1	1762	4770
1	1715	4771
1	1665	4772
1	1610	4773
1	1567	4774
1	1529	4775
1	1513	4776
1	1517	4777
1	1533	4778
1	1555	4779
1	1593	4780
1	1631	4781
1	1661	4782
1	1690	4783
1	1719	4784
1	1743	4785
1	1767	4786
1	1788	4787
1	1791	4788
1	1788	4789
1	1777	4790
1	1761	4791
1	1747	4792
1	1728	4793
1	1700	4794
1	1680	4795
1	1660	4796
1	1638	4797
1	1617	4798
1	1607	4799
1	1610	4800
1	1635	4801
1	1673	4802
1	1713	4803
1	1749	4804
1	1776	4805
1	1796	4806
1	1803	4807
1	1803	4808
1	1788	4809
1	1773	4810
1	1755	4811
1	1729	4812
1	1701	4813
1	1687	4814
1	1672	4815
1	1667	4816
1	1685	4817
1	1716	4818
1	1763	4819
1	1809	4820
1	1845	4821
1	1881	4822
1	1913	4823
1	1932	4824
1	1948	4825
1	1948	4826
1	1931	4827
1	1912	4828
1	1880	4829
1	1845	4830
1	1813	4831
1	1785	4832
1	1751	4833
1	1724	4834
1	1712	4835
1	1717	4836
1	1737	4837
1	1762	4838
1	1782	4839
1	1809	4840
1	1842	4841
1	1862	4842
1	1873	4843
1	1891	4844
1	1896	4845
1	1895	4846
1	1891	4847
1	1890	4848
1	1895	4849
1	1897	4850
1	1895	4851
1	1880	4852
1	1865	4853
1	1845	4854
1	1842	4855
1	1836	4856
1	1837	4857
1	1837	4858
1	1849	4859
1	1867	4860
1	1881	4861
1	1898	4862
1	1908	4863
1	1908	4864
1	1895	4865
1	1881	4866
1	1867	4867
1	1855	4868
1	1835	4869
1	1814	4870
1	1791	4871
1	1765	4872
1	1738	4873
1	1721	4874
1	1706	4875
1	1693	4876
1	1696	4877
1	1710	4878
1	1730	4879
1	1761	4880
1	1790	4881
1	1818	4882
1	1843	4883
1	1843	4884
1	1834	4885
1	1812	4886
1	1777	4887
1	1741	4888
1	1711	4889
1	1681	4890
1	1659	4891
1	1638	4892
1	1607	4893
1	1581	4894
1	1557	4895
1	1544	4896
1	1543	4897
1	1560	4898
1	1584	4899
1	1612	4900
1	1642	4901
1	1661	4902
1	1674	4903
1	1686	4904
1	1690	4905
1	1689	4906
1	1683	4907
1	1669	4908
1	1649	4909
1	1634	4910
1	1612	4911
1	1600	4912
1	1586	4913
1	1561	4914
1	1549	4915
1	1543	4916
1	1542	4917
1	1551	4918
1	1573	4919
1	1598	4920
1	1625	4921
1	1646	4922
1	1658	4923
1	1663	4924
1	1668	4925
1	1668	4926
1	1668	4927
1	1665	4928
1	1662	4929
1	1656	4930
1	1634	4931
1	1619	4932
1	1602	4933
1	1584	4934
1	1574	4935
1	1567	4936
1	1564	4937
1	1565	4938
1	1577	4939
1	1594	4940
1	1611	4941
1	1639	4942
1	1662	4943
1	1679	4944
1	1679	4945
1	1669	4946
1	1649	4947
1	1616	4948
1	1592	4949
1	1557	4950
1	1534	4951
1	1525	4952
1	1527	4953
1	1541	4954
1	1556	4955
1	1581	4956
1	1608	4957
1	1639	4958
1	1657	4959
1	1665	4960
1	1670	4961
1	1661	4962
1	1643	4963
1	1642	4964
1	1646	4965
1	1656	4966
1	1665	4967
1	1670	4968
1	1652	4969
1	1633	4970
1	1599	4971
1	1562	4972
1	1530	4973
1	1514	4974
1	1515	4975
1	1515	4976
1	1526	4977
1	1546	4978
1	1582	4979
1	1622	4980
1	1664	4981
1	1705	4982
1	1738	4983
1	1760	4984
1	1759	4985
1	1754	4986
1	1751	4987
1	1751	4988
1	1727	4989
1	1697	4990
1	1655	4991
1	1612	4992
1	1575	4993
1	1549	4994
1	1527	4995
1	1517	4996
1	1529	4997
1	1553	4998
1	1574	4999
1	1594	5000
1	1631	5001
1	1670	5002
1	1712	5003
1	1742	5004
1	1764	5005
1	1762	5006
1	1746	5007
1	1720	5008
1	1702	5009
1	1667	5010
1	1634	5011
1	1602	5012
1	1571	5013
1	1537	5014
1	1504	5015
1	1485	5016
1	1475	5017
1	1476	5018
1	1493	5019
1	1529	5020
1	1571	5021
1	1612	5022
1	1652	5023
1	1687	5024
1	1713	5025
1	1732	5026
1	1742	5027
1	1738	5028
1	1736	5029
1	1724	5030
1	1711	5031
1	1698	5032
1	1683	5033
1	1667	5034
1	1652	5035
1	1652	5036
1	1658	5037
1	1658	5038
1	1652	5039
1	1659	5040
1	1679	5041
1	1698	5042
1	1712	5043
1	1715	5044
1	1711	5045
1	1691	5046
1	1668	5047
1	1647	5048
1	1621	5049
1	1595	5050
1	1571	5051
1	1550	5052
1	1537	5053
1	1540	5054
1	1529	5055
1	1520	5056
1	1520	5057
1	1529	5058
1	1534	5059
1	1660	5080
1	1668	5081
1	1674	5082
1	1677	5083
1	1674	5084
1	1664	5085
1	1661	5086
1	1661	5087
1	1660	5088
1	1647	5089
1	1626	5090
1	1598	5091
1	1576	5092
1	1567	5093
1	1561	5094
1	1567	5095
1	1580	5096
1	1593	5097
1	1613	5098
1	1643	5099
1	1670	5100
1	1711	5101
1	1752	5102
1	1785	5103
1	1799	5104
1	1800	5105
1	1791	5106
1	1769	5107
1	1759	5108
1	1742	5109
1	1727	5110
1	1717	5111
1	1706	5112
1	1697	5113
1	1698	5114
1	1699	5115
1	1710	5116
1	1720	5117
1	1728	5118
1	1737	5119
1	1547	5060
1	1563	5061
1	1584	5062
1	1608	5063
1	1628	5064
1	1660	5065
1	1687	5066
1	1708	5067
1	1710	5068
1	1709	5069
1	1698	5070
1	1689	5071
1	1681	5072
1	1660	5073
1	1638	5074
1	1625	5075
1	1618	5076
1	1618	5077
1	1634	5078
1	1648	5079
1	1738	5120
1	1737	5121
1	1718	5122
1	1704	5123
1	1687	5124
1	1672	5125
1	1660	5126
1	1659	5127
1	1660	5128
1	1655	5129
1	1643	5130
1	1629	5131
1	1616	5132
1	1595	5133
1	1569	5134
1	1550	5135
1	1542	5136
1	1548	5137
1	1559	5138
1	1567	5139
1	1579	5140
1	1595	5141
1	1616	5142
1	1633	5143
1	1643	5144
1	1647	5145
1	1651	5146
1	1653	5147
1	1651	5148
1	1647	5149
1	1650	5150
1	1647	5151
1	1634	5152
1	1612	5153
1	1583	5154
1	1559	5155
1	1542	5156
1	1534	5157
1	1530	5158
1	1540	5159
1	1555	5160
1	1574	5161
1	1594	5162
1	1607	5163
1	1609	5164
1	1611	5165
1	1607	5166
1	1602	5167
1	1597	5168
1	1585	5169
1	1581	5170
1	1573	5171
1	1568	5172
1	1557	5173
1	1555	5174
1	1551	5175
1	1559	5176
1	1581	5177
1	1602	5178
1	1608	5179
1	1619	5180
1	1626	5181
1	1646	5182
1	1679	5183
1	1710	5184
1	1733	5185
1	1738	5186
1	1721	5187
1	1695	5188
1	1661	5189
1	1619	5190
1	1584	5191
1	1553	5192
1	1534	5193
1	1533	5194
1	1542	5195
1	1556	5196
1	1579	5197
1	1598	5198
1	1607	5199
1	1628	5200
1	1650	5201
1	1668	5202
1	1678	5203
1	1680	5204
1	1662	5205
1	1636	5206
1	1602	5207
1	1567	5208
1	1542	5209
1	1518	5210
1	1503	5211
1	1498	5212
1	1503	5213
1	1513	5214
1	1539	5215
1	1579	5216
1	1615	5217
1	1655	5218
1	1696	5219
1	1737	5220
1	1767	5221
1	1803	5222
1	1842	5223
1	1863	5224
1	1897	5225
1	1923	5226
1	1940	5227
1	1948	5228
1	1947	5229
1	1940	5230
1	1935	5231
1	1939	5232
1	1948	5233
1	1949	5234
1	1948	5235
1	1944	5236
1	1937	5237
1	1921	5238
1	1904	5239
1	1895	5240
1	1878	5241
1	1856	5242
1	1818	5243
1	1764	5244
1	1712	5245
1	1657	5246
1	1603	5247
1	1550	5248
1	1503	5249
1	1450	5250
1	1420	5251
1	1401	5252
1	1395	5253
1	1394	5254
1	1397	5255
1	1417	5256
1	1438	5257
1	1461	5258
1	1476	5259
1	1562	5280
1	1604	5281
1	1643	5282
1	1669	5283
1	1683	5284
1	1686	5285
1	1679	5286
1	1660	5287
1	1634	5288
1	1607	5289
1	1581	5290
1	1556	5291
1	1536	5292
1	1521	5293
1	1518	5294
1	1531	5295
1	1555	5296
1	1587	5297
1	1620	5298
1	1651	5299
1	1503	5260
1	1528	5261
1	1542	5262
1	1555	5263
1	1579	5264
1	1592	5265
1	1602	5266
1	1606	5267
1	1595	5268
1	1573	5269
1	1541	5270
1	1503	5271
1	1482	5272
1	1472	5273
1	1463	5274
1	1467	5275
1	1479	5276
1	1487	5277
1	1499	5278
1	1527	5279
1	1677	5300
1	1698	5301
1	1705	5302
1	1701	5303
1	1680	5304
1	1660	5305
1	1654	5306
1	1647	5307
1	1631	5308
1	1620	5309
1	1594	5310
1	1564	5311
1	1539	5312
1	1526	5313
1	1521	5314
1	1521	5315
1	1529	5316
1	1551	5317
1	1581	5318
1	1607	5319
1	1521	5340
1	1548	5341
1	1572	5342
1	1594	5343
1	1615	5344
1	1630	5345
1	1626	5346
1	1602	5347
1	1570	5348
1	1530	5349
1	1498	5350
1	1474	5351
1	1459	5352
1	1463	5353
1	1481	5354
1	1503	5355
1	1533	5356
1	1572	5357
1	1613	5358
1	1667	5359
1	1647	5320
1	1686	5321
1	1712	5322
1	1728	5323
1	1749	5324
1	1752	5325
1	1743	5326
1	1731	5327
1	1704	5328
1	1683	5329
1	1659	5330
1	1632	5331
1	1603	5332
1	1584	5333
1	1574	5334
1	1548	5335
1	1523	5336
1	1509	5337
1	1503	5338
1	1504	5339
1	1715	5380
1	1725	5381
1	1738	5382
1	1746	5383
1	1755	5384
1	1756	5385
1	1754	5386
1	1744	5387
1	1720	5388
1	1699	5389
1	1686	5390
1	1678	5391
1	1670	5392
1	1659	5393
1	1636	5394
1	1628	5395
1	1634	5396
1	1657	5397
1	1694	5398
1	1735	5399
1	1719	5360
1	1764	5361
1	1798	5362
1	1826	5363
1	1826	5364
1	1816	5365
1	1782	5366
1	1744	5367
1	1710	5368
1	1684	5369
1	1653	5370
1	1626	5371
1	1598	5372
1	1581	5373
1	1579	5374
1	1592	5375
1	1616	5376
1	1647	5377
1	1679	5378
1	1701	5379
1	1762	5400
1	1787	5401
1	1812	5402
1	1828	5403
1	1826	5404
1	1817	5405
1	1813	5406
1	1791	5407
1	1765	5408
1	1726	5409
1	1694	5410
1	1669	5411
1	1656	5412
1	1647	5413
1	1660	5414
1	1677	5415
1	1709	5416
1	1746	5417
1	1777	5418
1	1801	5419
1	1827	5420
1	1843	5421
1	1860	5422
1	1885	5423
1	1908	5424
1	1923	5425
1	1927	5426
1	1920	5427
1	1898	5428
1	1868	5429
1	1843	5430
1	1819	5431
1	1809	5432
1	1798	5433
1	1796	5434
1	1795	5435
1	1811	5436
1	1825	5437
1	1844	5438
1	1856	5439
1	1716	5480
1	1738	5481
1	1762	5482
1	1779	5483
1	1791	5484
1	1791	5485
1	1786	5486
1	1769	5487
1	1742	5488
1	1723	5489
1	1687	5490
1	1651	5491
1	1616	5492
1	1595	5493
1	1594	5494
1	1607	5495
1	1629	5496
1	1660	5497
1	1690	5498
1	1712	5499
1	1869	5440
1	1881	5441
1	1886	5442
1	1894	5443
1	1900	5444
1	1894	5445
1	1879	5446
1	1860	5447
1	1841	5448
1	1824	5449
1	1814	5450
1	1798	5451
1	1789	5452
1	1777	5453
1	1766	5454
1	1773	5455
1	1793	5456
1	1823	5457
1	1848	5458
1	1880	5459
1	1742	5500
1	1767	5501
1	1782	5502
1	1780	5503
1	1779	5504
1	1764	5505
1	1749	5506
1	1728	5507
1	1703	5508
1	1663	5509
1	1629	5510
1	1589	5511
1	1555	5512
1	1529	5513
1	1511	5514
1	1502	5515
1	1500	5516
1	1507	5517
1	1538	5518
1	1581	5519
1	1901	5460
1	1921	5461
1	1937	5462
1	1948	5463
1	1948	5464
1	1934	5465
1	1908	5466
1	1880	5467
1	1852	5468
1	1814	5469
1	1777	5470
1	1739	5471
1	1701	5472
1	1678	5473
1	1670	5474
1	1662	5475
1	1661	5476
1	1670	5477
1	1682	5478
1	1695	5479
1	1619	5520
1	1647	5521
1	1663	5522
1	1661	5523
1	1647	5524
1	1626	5525
1	1616	5526
1	1607	5527
1	1593	5528
1	1570	5529
1	1547	5530
1	1527	5531
1	1514	5532
1	1507	5533
1	1503	5534
1	1503	5535
1	1507	5536
1	1508	5537
1	1503	5538
1	1494	5539
1	1499	5540
1	1513	5541
1	1541	5542
1	1580	5543
1	1620	5544
1	1660	5545
1	1686	5546
1	1704	5547
1	1716	5548
1	1724	5549
1	1724	5550
1	1723	5551
1	1706	5552
1	1691	5553
1	1665	5554
1	1639	5555
1	1625	5556
1	1634	5557
1	1649	5558
1	1657	5559
1	1665	5560
1	1684	5561
1	1698	5562
1	1701	5563
1	1703	5564
1	1692	5565
1	1674	5566
1	1648	5567
1	1634	5568
1	1620	5569
1	1599	5570
1	1579	5571
1	1561	5572
1	1556	5573
1	1557	5574
1	1569	5575
1	1582	5576
1	1607	5577
1	1625	5578
1	1651	5579
1	1683	5580
1	1712	5581
1	1723	5582
1	1724	5583
1	1717	5584
1	1712	5585
1	1708	5586
1	1700	5587
1	1686	5588
1	1656	5589
1	1625	5590
1	1584	5591
1	1542	5592
1	1507	5593
1	1485	5594
1	1475	5595
1	1490	5596
1	1516	5597
1	1548	5598
1	1581	5599
1	1620	5600
1	1660	5601
1	1686	5602
1	1710	5603
1	1715	5604
1	1726	5605
1	1734	5606
1	1730	5607
1	1716	5608
1	1714	5609
1	1709	5610
1	1700	5611
1	1695	5612
1	1699	5613
1	1702	5614
1	1703	5615
1	1705	5616
1	1703	5617
1	1697	5618
1	1686	5619
1	1680	5620
1	1680	5621
1	1685	5622
1	1683	5623
1	1681	5624
1	1656	5625
1	1638	5626
1	1625	5627
1	1605	5628
1	1584	5629
1	1566	5630
1	1548	5631
1	1535	5632
1	1525	5633
1	1516	5634
1	1520	5635
1	1544	5636
1	1585	5637
1	1632	5638
1	1674	5639
1	1634	5660
1	1686	5661
1	1738	5662
1	1778	5663
1	1799	5664
1	1802	5665
1	1785	5666
1	1749	5667
1	1710	5668
1	1683	5669
1	1651	5670
1	1623	5671
1	1594	5672
1	1567	5673
1	1546	5674
1	1536	5675
1	1535	5676
1	1555	5677
1	1589	5678
1	1624	5679
1	1671	5680
1	1728	5681
1	1783	5682
1	1826	5683
1	1845	5684
1	1841	5685
1	1825	5686
1	1803	5687
1	1778	5688
1	1756	5689
1	1740	5690
1	1712	5691
1	1679	5692
1	1661	5693
1	1643	5694
1	1639	5695
1	1656	5696
1	1674	5697
1	1687	5698
1	1701	5699
1	1711	5700
1	1717	5701
1	1725	5702
1	1736	5703
1	1742	5704
1	1743	5705
1	1741	5706
1	1728	5707
1	1710	5708
1	1679	5709
1	1647	5710
1	1614	5711
1	1583	5712
1	1569	5713
1	1569	5714
1	1569	5715
1	1576	5716
1	1581	5717
1	1594	5718
1	1613	5719
1	1712	5640
1	1740	5641
1	1754	5642
1	1763	5643
1	1763	5644
1	1751	5645
1	1734	5646
1	1712	5647
1	1694	5648
1	1665	5649
1	1646	5650
1	1619	5651
1	1588	5652
1	1557	5653
1	1534	5654
1	1515	5655
1	1505	5656
1	1518	5657
1	1543	5658
1	1583	5659
1	1645	5720
1	1679	5721
1	1699	5722
1	1717	5723
1	1738	5724
1	1746	5725
1	1743	5726
1	1727	5727
1	1702	5728
1	1665	5729
1	1634	5730
1	1607	5731
1	1584	5732
1	1575	5733
1	1565	5734
1	1562	5735
1	1562	5736
1	1571	5737
1	1584	5738
1	1600	5739
1	1610	5740
1	1625	5741
1	1635	5742
1	1636	5743
1	1634	5744
1	1620	5745
1	1606	5746
1	1587	5747
1	1562	5748
1	1536	5749
1	1521	5750
1	1508	5751
1	1508	5752
1	1518	5753
1	1533	5754
1	1555	5755
1	1569	5756
1	1581	5757
1	1598	5758
1	1626	5759
1	1582	5800
1	1606	5801
1	1625	5802
1	1647	5803
1	1678	5804
1	1711	5805
1	1744	5806
1	1779	5807
1	1800	5808
1	1822	5809
1	1836	5810
1	1845	5811
1	1860	5812
1	1872	5813
1	1883	5814
1	1908	5815
1	1940	5816
1	1963	5817
1	1989	5818
1	2028	5819
1	1647	5760
1	1661	5761
1	1679	5762
1	1695	5763
1	1706	5764
1	1710	5765
1	1704	5766
1	1697	5767
1	1686	5768
1	1660	5769
1	1626	5770
1	1583	5771
1	1542	5772
1	1512	5773
1	1492	5774
1	1478	5775
1	1484	5776
1	1504	5777
1	1547	5778
1	1585	5779
1	1623	5780
1	1651	5781
1	1664	5782
1	1669	5783
1	1654	5784
1	1643	5785
1	1631	5786
1	1611	5787
1	1586	5788
1	1564	5789
1	1539	5790
1	1517	5791
1	1503	5792
1	1493	5793
1	1489	5794
1	1495	5795
1	1512	5796
1	1526	5797
1	1544	5798
1	1557	5799
1	2056	5820
1	2075	5821
1	2080	5822
1	2070	5823
1	2037	5824
1	1991	5825
1	1945	5826
1	1894	5827
1	1842	5828
1	1775	5829
1	1705	5830
1	1633	5831
1	1562	5832
1	1508	5833
1	1471	5834
1	1447	5835
1	1423	5836
1	1400	5837
1	1401	5838
1	1409	5839
1	1583	5860
1	1598	5861
1	1607	5862
1	1610	5863
1	1612	5864
1	1605	5865
1	1595	5866
1	1584	5867
1	1569	5868
1	1550	5869
1	1530	5870
1	1512	5871
1	1500	5872
1	1490	5873
1	1485	5874
1	1490	5875
1	1502	5876
1	1521	5877
1	1552	5878
1	1589	5879
1	1419	5840
1	1429	5841
1	1438	5842
1	1447	5843
1	1451	5844
1	1468	5845
1	1488	5846
1	1503	5847
1	1519	5848
1	1529	5849
1	1520	5850
1	1513	5851
1	1503	5852
1	1490	5853
1	1482	5854
1	1488	5855
1	1501	5856
1	1517	5857
1	1539	5858
1	1561	5859
1	1611	5880
1	1642	5881
1	1668	5882
1	1688	5883
1	1703	5884
1	1712	5885
1	1719	5886
1	1718	5887
1	1706	5888
1	1686	5889
1	1671	5890
1	1656	5891
1	1636	5892
1	1616	5893
1	1595	5894
1	1572	5895
1	1556	5896
1	1548	5897
1	1548	5898
1	1557	5899
1	1579	5900
1	1604	5901
1	1637	5902
1	1662	5903
1	1674	5904
1	1679	5905
1	1674	5906
1	1660	5907
1	1638	5908
1	1620	5909
1	1589	5910
1	1561	5911
1	1543	5912
1	1533	5913
1	1537	5914
1	1549	5915
1	1575	5916
1	1609	5917
1	1652	5918
1	1677	5919
1	1688	5920
1	1687	5921
1	1678	5922
1	1664	5923
1	1649	5924
1	1607	5925
1	1602	5926
1	1616	5927
1	1620	5928
1	1620	5929
1	1609	5930
1	1594	5931
1	1571	5932
1	1554	5933
1	1541	5934
1	1548	5935
1	1570	5936
1	1595	5937
1	1616	5938
1	1639	5939
1	1661	5940
1	1687	5941
1	1712	5942
1	1720	5943
1	1724	5944
1	1724	5945
1	1715	5946
1	1699	5947
1	1679	5948
1	1646	5949
1	1608	5950
1	1577	5951
1	1547	5952
1	1530	5953
1	1536	5954
1	1551	5955
1	1573	5956
1	1595	5957
1	1626	5958
1	1661	5959
1	1710	5960
1	1759	5961
1	1796	5962
1	1812	5963
1	1798	5964
1	1782	5965
1	1764	5966
1	1749	5967
1	1731	5968
1	1712	5969
1	1678	5970
1	1652	5971
1	1634	5972
1	1632	5973
1	1639	5974
1	1647	5975
1	1663	5976
1	1692	5977
1	1724	5978
1	1750	5979
1	1776	5980
1	1796	5981
1	1818	5982
1	1818	5983
1	1815	5984
1	1791	5985
1	1778	5986
1	1764	5987
1	1751	5988
1	1738	5989
1	1713	5990
1	1689	5991
1	1673	5992
1	1677	5993
1	1685	5994
1	1696	5995
1	1715	5996
1	1744	5997
1	1778	5998
1	1811	5999
1	1841	6000
1	1869	6001
1	1893	6002
1	1899	6003
1	1895	6004
1	1885	6005
1	1871	6006
1	1854	6007
1	1830	6008
1	1790	6009
1	1764	6010
1	1757	6011
1	1765	6012
1	1778	6013
1	1801	6014
1	1825	6015
1	1854	6016
1	1873	6017
1	1891	6018
1	1895	6019
1	1896	6020
1	1895	6021
1	1885	6022
1	1875	6023
1	1864	6024
1	1847	6025
1	1822	6026
1	1790	6027
1	1765	6028
1	1755	6029
1	1751	6030
1	1751	6031
1	1755	6032
1	1783	6033
1	1817	6034
1	1847	6035
1	1874	6036
1	1904	6037
1	1922	6038
1	1940	6039
1	1959	6040
1	1980	6041
1	1989	6042
1	1996	6043
1	1993	6044
1	1970	6045
1	1923	6046
1	1881	6047
1	1847	6048
1	1816	6049
1	1790	6050
1	1772	6051
1	1763	6052
1	1766	6053
1	1773	6054
1	1790	6055
1	1803	6056
1	1818	6057
1	1827	6058
1	1838	6059
1	1843	6060
1	1848	6061
1	1844	6062
1	1836	6063
1	1821	6064
1	1798	6065
1	1768	6066
1	1733	6067
1	1694	6068
1	1647	6069
1	1612	6070
1	1581	6071
1	1561	6072
1	1561	6073
1	1593	6074
1	1634	6075
1	1680	6076
1	1718	6077
1	1746	6078
1	1773	6079
1	1814	6080
1	1843	6081
1	1858	6082
1	1865	6083
1	1850	6084
1	1829	6085
1	1789	6086
1	1740	6087
1	1697	6088
1	1659	6089
1	1619	6090
1	1592	6091
1	1575	6092
1	1557	6093
1	1546	6094
1	1530	6095
1	1521	6096
1	1529	6097
1	1543	6098
1	1559	6099
1	1591	6100
1	1616	6101
1	1641	6102
1	1669	6103
1	1687	6104
1	1682	6105
1	1652	6106
1	1622	6107
1	1596	6108
1	1574	6109
1	1546	6110
1	1529	6111
1	1508	6112
1	1503	6113
1	1504	6114
1	1523	6115
1	1544	6116
1	1561	6117
1	1580	6118
1	1602	6119
1	1609	6120
1	1621	6121
1	1644	6122
1	1670	6123
1	1675	6124
1	1681	6125
1	1674	6126
1	1660	6127
1	1648	6128
1	1637	6129
1	1622	6130
1	1607	6131
1	1584	6132
1	1566	6133
1	1562	6134
1	1569	6135
1	1580	6136
1	1593	6137
1	1621	6138
1	1648	6139
1	1682	6160
1	1686	6161
1	1683	6162
1	1669	6163
1	1657	6164
1	1644	6165
1	1638	6166
1	1632	6167
1	1613	6168
1	1586	6169
1	1557	6170
1	1537	6171
1	1527	6172
1	1526	6173
1	1529	6174
1	1542	6175
1	1561	6176
1	1587	6177
1	1622	6178
1	1660	6179
1	1682	6140
1	1705	6141
1	1720	6142
1	1720	6143
1	1703	6144
1	1682	6145
1	1661	6146
1	1645	6147
1	1625	6148
1	1596	6149
1	1559	6150
1	1530	6151
1	1520	6152
1	1527	6153
1	1543	6154
1	1564	6155
1	1590	6156
1	1620	6157
1	1651	6158
1	1671	6159
1	1651	6200
1	1688	6201
1	1724	6202
1	1752	6203
1	1764	6204
1	1760	6205
1	1737	6206
1	1698	6207
1	1660	6208
1	1634	6209
1	1605	6210
1	1569	6211
1	1545	6212
1	1534	6213
1	1540	6214
1	1551	6215
1	1566	6216
1	1587	6217
1	1620	6218
1	1644	6219
1	1686	6180
1	1710	6181
1	1734	6182
1	1751	6183
1	1759	6184
1	1748	6185
1	1725	6186
1	1708	6187
1	1695	6188
1	1665	6189
1	1634	6190
1	1597	6191
1	1561	6192
1	1531	6193
1	1517	6194
1	1513	6195
1	1514	6196
1	1529	6197
1	1566	6198
1	1610	6199
1	1669	6220
1	1692	6221
1	1710	6222
1	1717	6223
1	1737	6224
1	1728	6225
1	1715	6226
1	1704	6227
1	1674	6228
1	1652	6229
1	1634	6230
1	1620	6231
1	1607	6232
1	1596	6233
1	1582	6234
1	1566	6235
1	1572	6236
1	1589	6237
1	1611	6238
1	1638	6239
1	1655	6240
1	1662	6241
1	1674	6242
1	1676	6243
1	1685	6244
1	1693	6245
1	1705	6246
1	1711	6247
1	1707	6248
1	1688	6249
1	1673	6250
1	1655	6251
1	1634	6252
1	1623	6253
1	1623	6254
1	1625	6255
1	1632	6256
1	1632	6257
1	1635	6258
1	1644	6259
1	1689	6280
1	1697	6281
1	1701	6282
1	1713	6283
1	1728	6284
1	1733	6285
1	1734	6286
1	1728	6287
1	1708	6288
1	1675	6289
1	1644	6290
1	1621	6291
1	1605	6292
1	1589	6293
1	1580	6294
1	1588	6295
1	1607	6296
1	1625	6297
1	1649	6298
1	1686	6299
1	1652	6260
1	1670	6261
1	1697	6262
1	1725	6263
1	1747	6264
1	1769	6265
1	1778	6266
1	1767	6267
1	1746	6268
1	1717	6269
1	1686	6270
1	1660	6271
1	1650	6272
1	1646	6273
1	1647	6274
1	1651	6275
1	1662	6276
1	1675	6277
1	1686	6278
1	1684	6279
1	1712	6300
1	1725	6301
1	1740	6302
1	1747	6303
1	1744	6304
1	1726	6305
1	1701	6306
1	1665	6307
1	1617	6308
1	1557	6309
1	1505	6310
1	1458	6311
1	1422	6312
1	1404	6313
1	1417	6314
1	1446	6315
1	1491	6316
1	1535	6317
1	1576	6318
1	1607	6319
1	1632	6340
1	1644	6341
1	1649	6342
1	1652	6343
1	1665	6344
1	1669	6345
1	1661	6346
1	1638	6347
1	1607	6348
1	1568	6349
1	1533	6350
1	1503	6351
1	1493	6352
1	1497	6353
1	1504	6354
1	1521	6355
1	1544	6356
1	1580	6357
1	1620	6358
1	1660	6359
1	1647	6320
1	1686	6321
1	1724	6322
1	1747	6323
1	1754	6324
1	1739	6325
1	1721	6326
1	1697	6327
1	1674	6328
1	1652	6329
1	1630	6330
1	1600	6331
1	1566	6332
1	1551	6333
1	1539	6334
1	1541	6335
1	1556	6336
1	1580	6337
1	1603	6338
1	1618	6339
1	1685	6360
1	1698	6361
1	1703	6362
1	1691	6363
1	1665	6364
1	1645	6365
1	1625	6366
1	1603	6367
1	1577	6368
1	1542	6369
1	1513	6370
1	1489	6371
1	1475	6372
1	1471	6373
1	1474	6374
1	1476	6375
1	1501	6376
1	1528	6377
1	1547	6378
1	1572	6379
1	1608	6380
1	1660	6381
1	1719	6382
1	1773	6383
1	1829	6384
1	1875	6385
1	1917	6386
1	1945	6387
1	1949	6388
1	1944	6389
1	1926	6390
1	1913	6391
1	1917	6392
1	1932	6393
1	1953	6394
1	1962	6395
1	1963	6396
1	1970	6397
1	1976	6398
1	1975	6399
1	1980	6400
1	1974	6401
1	1955	6402
1	1929	6403
1	1904	6404
1	1870	6405
1	1824	6406
1	1759	6407
1	1688	6408
1	1625	6409
1	1566	6410
1	1505	6411
1	1450	6412
1	1400	6413
1	1356	6414
1	1332	6415
1	1314	6416
1	1301	6417
1	1305	6418
1	1332	6419
1	1369	6420
1	1413	6421
1	1453	6422
1	1482	6423
1	1502	6424
1	1517	6425
1	1529	6426
1	1528	6427
1	1521	6428
1	1503	6429
1	1490	6430
1	1491	6431
1	1503	6432
1	1516	6433
1	1541	6434
1	1561	6435
1	1587	6436
1	1620	6437
1	1647	6438
1	1671	6439
1	1688	6460
1	1719	6461
1	1739	6462
1	1742	6463
1	1742	6464
1	1729	6465
1	1703	6466
1	1674	6467
1	1647	6468
1	1620	6469
1	1585	6470
1	1542	6471
1	1500	6472
1	1463	6473
1	1439	6474
1	1440	6475
1	1454	6476
1	1478	6477
1	1515	6478
1	1558	6479
1	1700	6440
1	1721	6441
1	1737	6442
1	1737	6443
1	1717	6444
1	1686	6445
1	1639	6446
1	1582	6447
1	1521	6448
1	1474	6449
1	1437	6450
1	1413	6451
1	1391	6452
1	1373	6453
1	1381	6454
1	1422	6455
1	1473	6456
1	1535	6457
1	1598	6458
1	1646	6459
1	1594	6480
1	1628	6481
1	1659	6482
1	1682	6483
1	1691	6484
1	1696	6485
1	1697	6486
1	1690	6487
1	1684	6488
1	1663	6489
1	1644	6490
1	1618	6491
1	1584	6492
1	1551	6493
1	1528	6494
1	1521	6495
1	1523	6496
1	1542	6497
1	1581	6498
1	1623	6499
1	1679	6500
1	1731	6501
1	1779	6502
1	1823	6503
1	1843	6504
1	1845	6505
1	1829	6506
1	1794	6507
1	1761	6508
1	1720	6509
1	1669	6510
1	1621	6511
1	1589	6512
1	1577	6513
1	1576	6514
1	1579	6515
1	1582	6516
1	1593	6517
1	1603	6518
1	1613	6519
1	1643	6540
1	1690	6541
1	1726	6542
1	1754	6543
1	1769	6544
1	1777	6545
1	1773	6546
1	1763	6547
1	1751	6548
1	1733	6549
1	1725	6550
1	1711	6551
1	1694	6552
1	1681	6553
1	1679	6554
1	1678	6555
1	1686	6556
1	1698	6557
1	1709	6558
1	1727	6559
1	1639	6520
1	1661	6521
1	1685	6522
1	1697	6523
1	1705	6524
1	1701	6525
1	1685	6526
1	1668	6527
1	1636	6528
1	1609	6529
1	1591	6530
1	1584	6531
1	1589	6532
1	1600	6533
1	1607	6534
1	1606	6535
1	1594	6536
1	1591	6537
1	1595	6538
1	1607	6539
1	1752	6560
1	1786	6561
1	1818	6562
1	1843	6563
1	1847	6564
1	1843	6565
1	1830	6566
1	1809	6567
1	1778	6568
1	1755	6569
1	1736	6570
1	1712	6571
1	1691	6572
1	1674	6573
1	1660	6574
1	1660	6575
1	1685	6576
1	1728	6577
1	1777	6578
1	1819	6579
1	2025	6600
1	2051	6601
1	2065	6602
1	2068	6603
1	2063	6604
1	2043	6605
1	2007	6606
1	1968	6607
1	1922	6608
1	1875	6609
1	1841	6610
1	1791	6611
1	1755	6612
1	1728	6613
1	1718	6614
1	1716	6615
1	1734	6616
1	1770	6617
1	1824	6618
1	1875	6619
1	1860	6580
1	1895	6581
1	1924	6582
1	1946	6583
1	1948	6584
1	1922	6585
1	1884	6586
1	1839	6587
1	1782	6588
1	1737	6589
1	1699	6590
1	1685	6591
1	1697	6592
1	1721	6593
1	1750	6594
1	1793	6595
1	1849	6596
1	1893	6597
1	1940	6598
1	1989	6599
1	1922	6620
1	1958	6621
1	1968	6622
1	1971	6623
1	1963	6624
1	1946	6625
1	1917	6626
1	1886	6627
1	1863	6628
1	1845	6629
1	1829	6630
1	1814	6631
1	1801	6632
1	1790	6633
1	1782	6634
1	1783	6635
1	1792	6636
1	1815	6637
1	1824	6638
1	1824	6639
1	1836	6640
1	1843	6641
1	1843	6642
1	1841	6643
1	1826	6644
1	1799	6645
1	1778	6646
1	1757	6647
1	1738	6648
1	1718	6649
1	1700	6650
1	1675	6651
1	1652	6652
1	1638	6653
1	1634	6654
1	1646	6655
1	1661	6656
1	1686	6657
1	1705	6658
1	1731	6659
1	1746	6660
1	1755	6661
1	1757	6662
1	1751	6663
1	1736	6664
1	1710	6665
1	1673	6666
1	1633	6667
1	1581	6668
1	1529	6669
1	1491	6670
1	1469	6671
1	1463	6672
1	1469	6673
1	1485	6674
1	1500	6675
1	1525	6676
1	1551	6677
1	1577	6678
1	1602	6679
1	1623	6680
1	1634	6681
1	1633	6682
1	1627	6683
1	1613	6684
1	1598	6685
1	1585	6686
1	1580	6687
1	1572	6688
1	1574	6689
1	1569	6690
1	1562	6691
1	1566	6692
1	1574	6693
1	1582	6694
1	1597	6695
1	1613	6696
1	1634	6697
1	1656	6698
1	1659	6699
1	1660	6700
1	1659	6701
1	1659	6702
1	1657	6703
1	1660	6704
1	1661	6705
1	1652	6706
1	1633	6707
1	1609	6708
1	1584	6709
1	1564	6710
1	1546	6711
1	1538	6712
1	1543	6713
1	1555	6714
1	1581	6715
1	1606	6716
1	1636	6717
1	1670	6718
1	1706	6719
1	1737	6720
1	1757	6721
1	1788	6722
1	1799	6723
1	1791	6724
1	1773	6725
1	1739	6726
1	1696	6727
1	1644	6728
1	1587	6729
1	1538	6730
1	1494	6731
1	1463	6732
1	1446	6733
1	1450	6734
1	1476	6735
1	1503	6736
1	1549	6737
1	1583	6738
1	1611	6739
1	1641	6740
1	1668	6741
1	1688	6742
1	1701	6743
1	1707	6744
1	1710	6745
1	1697	6746
1	1674	6747
1	1651	6748
1	1639	6749
1	1625	6750
1	1607	6751
1	1597	6752
1	1594	6753
1	1606	6754
1	1618	6755
1	1633	6756
1	1645	6757
1	1656	6758
1	1656	6759
1	1659	6760
1	1662	6761
1	1679	6762
1	1698	6763
1	1712	6764
1	1712	6765
1	1701	6766
1	1687	6767
1	1672	6768
1	1656	6769
1	1647	6770
1	1643	6771
1	1647	6772
1	1655	6773
1	1664	6774
1	1683	6775
1	1700	6776
1	1714	6777
1	1726	6778
1	1737	6779
1	1739	6780
1	1751	6781
1	1751	6782
1	1751	6783
1	1749	6784
1	1742	6785
1	1737	6786
1	1724	6787
1	1712	6788
1	1688	6789
1	1674	6790
1	1657	6791
1	1639	6792
1	1616	6793
1	1589	6794
1	1570	6795
1	1574	6796
1	1590	6797
1	1611	6798
1	1645	6799
1	1677	6800
1	1710	6801
1	1742	6802
1	1765	6803
1	1780	6804
1	1799	6805
1	1815	6806
1	1811	6807
1	1786	6808
1	1761	6809
1	1721	6810
1	1683	6811
1	1647	6812
1	1620	6813
1	1607	6814
1	1607	6815
1	1621	6816
1	1643	6817
1	1656	6818
1	1657	6819
1	1713	6840
1	1753	6841
1	1779	6842
1	1796	6843
1	1791	6844
1	1767	6845
1	1743	6846
1	1719	6847
1	1697	6848
1	1667	6849
1	1643	6850
1	1625	6851
1	1613	6852
1	1607	6853
1	1607	6854
1	1600	6855
1	1607	6856
1	1623	6857
1	1646	6858
1	1674	6859
1	1660	6820
1	1661	6821
1	1669	6822
1	1682	6823
1	1702	6824
1	1712	6825
1	1712	6826
1	1719	6827
1	1712	6828
1	1705	6829
1	1686	6830
1	1662	6831
1	1647	6832
1	1638	6833
1	1634	6834
1	1625	6835
1	1616	6836
1	1621	6837
1	1638	6838
1	1675	6839
1	1710	6860
1	1740	6861
1	1762	6862
1	1764	6863
1	1751	6864
1	1735	6865
1	1712	6866
1	1702	6867
1	1687	6868
1	1669	6869
1	1645	6870
1	1628	6871
1	1621	6872
1	1621	6873
1	1623	6874
1	1621	6875
1	1623	6876
1	1621	6877
1	1621	6878
1	1613	6879
1	1660	6900
1	1685	6901
1	1698	6902
1	1700	6903
1	1701	6904
1	1689	6905
1	1676	6906
1	1659	6907
1	1638	6908
1	1610	6909
1	1591	6910
1	1570	6911
1	1543	6912
1	1520	6913
1	1507	6914
1	1493	6915
1	1485	6916
1	1490	6917
1	1506	6918
1	1540	6919
1	1611	6880
1	1607	6881
1	1598	6882
1	1593	6883
1	1587	6884
1	1575	6885
1	1561	6886
1	1554	6887
1	1535	6888
1	1506	6889
1	1481	6890
1	1469	6891
1	1475	6892
1	1490	6893
1	1503	6894
1	1523	6895
1	1548	6896
1	1578	6897
1	1602	6898
1	1634	6899
1	1581	6920
1	1620	6921
1	1654	6922
1	1672	6923
1	1681	6924
1	1678	6925
1	1668	6926
1	1660	6927
1	1644	6928
1	1607	6929
1	1567	6930
1	1529	6931
1	1508	6932
1	1503	6933
1	1507	6934
1	1530	6935
1	1571	6936
1	1617	6937
1	1668	6938
1	1717	6939
1	1769	6940
1	1817	6941
1	1841	6942
1	1852	6943
1	1865	6944
1	1870	6945
1	1874	6946
1	1868	6947
1	1859	6948
1	1856	6949
1	1862	6950
1	1869	6951
1	1884	6952
1	1899	6953
1	1913	6954
1	1926	6955
1	1932	6956
1	1939	6957
1	1940	6958
1	1948	6959
1	1945	6960
1	1925	6961
1	1895	6962
1	1852	6963
1	1809	6964
1	1760	6965
1	1710	6966
1	1649	6967
1	1584	6968
1	1512	6969
1	1445	6970
1	1377	6971
1	1327	6972
1	1293	6973
1	1276	6974
1	1260	6975
1	1257	6976
1	1271	6977
1	1301	6978
1	1333	6979
1	1372	6980
1	1415	6981
1	1450	6982
1	1490	6983
1	1519	6984
1	1537	6985
1	1544	6986
1	1548	6987
1	1544	6988
1	1539	6989
1	1528	6990
1	1521	6991
1	1526	6992
1	1528	6993
1	1533	6994
1	1550	6995
1	1566	6996
1	1580	6997
1	1594	6998
1	1607	6999
1	1612	7000
1	1607	7001
1	1595	7002
1	1587	7003
1	1579	7004
1	1555	7005
1	1541	7006
1	1546	7007
1	1555	7008
1	1566	7009
1	1580	7010
1	1600	7011
1	1628	7012
1	1660	7013
1	1685	7014
1	1703	7015
1	1724	7016
1	1741	7017
1	1760	7018
1	1776	7019
1	1768	7020
1	1758	7021
1	1751	7022
1	1730	7023
1	1694	7024
1	1661	7025
1	1636	7026
1	1618	7027
1	1603	7028
1	1586	7029
1	1566	7030
1	1543	7031
1	1529	7032
1	1517	7033
1	1520	7034
1	1539	7035
1	1559	7036
1	1590	7037
1	1616	7038
1	1634	7039
1	1655	7040
1	1670	7041
1	1690	7042
1	1705	7043
1	1704	7044
1	1691	7045
1	1674	7046
1	1660	7047
1	1642	7048
1	1633	7049
1	1620	7050
1	1612	7051
1	1611	7052
1	1618	7053
1	1628	7054
1	1634	7055
1	1643	7056
1	1658	7057
1	1670	7058
1	1675	7059
1	1760	7080
1	1760	7081
1	1754	7082
1	1743	7083
1	1734	7084
1	1725	7085
1	1711	7086
1	1686	7087
1	1662	7088
1	1645	7089
1	1633	7090
1	1620	7091
1	1624	7092
1	1636	7093
1	1660	7094
1	1682	7095
1	1699	7096
1	1719	7097
1	1731	7098
1	1744	7099
1	1681	7060
1	1687	7061
1	1701	7062
1	1712	7063
1	1721	7064
1	1715	7065
1	1700	7066
1	1666	7067
1	1634	7068
1	1618	7069
1	1613	7070
1	1618	7071
1	1631	7072
1	1647	7073
1	1662	7074
1	1682	7075
1	1694	7076
1	1711	7077
1	1728	7078
1	1750	7079
1	1763	7100
1	1778	7101
1	1787	7102
1	1782	7103
1	1764	7104
1	1752	7105
1	1743	7106
1	1728	7107
1	1703	7108
1	1685	7109
1	1657	7110
1	1639	7111
1	1633	7112
1	1638	7113
1	1661	7114
1	1697	7115
1	1738	7116
1	1780	7117
1	1825	7118
1	1848	7119
1	1864	7120
1	1880	7121
1	1894	7122
1	1894	7123
1	1899	7124
1	1888	7125
1	1890	7126
1	1869	7127
1	1859	7128
1	1840	7129
1	1826	7130
1	1819	7131
1	1818	7132
1	1819	7133
1	1821	7134
1	1835	7135
1	1852	7136
1	1870	7137
1	1885	7138
1	1882	7139
1	1883	7140
1	1885	7141
1	1885	7142
1	1893	7143
1	1893	7144
1	1885	7145
1	1873	7146
1	1861	7147
1	1850	7148
1	1832	7149
1	1821	7150
1	1802	7151
1	1801	7152
1	1816	7153
1	1843	7154
1	1863	7155
1	1890	7156
1	1922	7157
1	1949	7158
1	1972	7159
1	1989	7160
1	2006	7161
1	2012	7162
1	2004	7163
1	1978	7164
1	1961	7165
1	1939	7166
1	1922	7167
1	1904	7168
1	1892	7169
1	1863	7170
1	1836	7171
1	1818	7172
1	1811	7173
1	1802	7174
1	1803	7175
1	1801	7176
1	1802	7177
1	1814	7178
1	1820	7179
1	1843	7180
1	1875	7181
1	1904	7182
1	1921	7183
1	1934	7184
1	1933	7185
1	1929	7186
1	1922	7187
1	1906	7188
1	1885	7189
1	1859	7190
1	1834	7191
1	1813	7192
1	1794	7193
1	1790	7194
1	1796	7195
1	1820	7196
1	1841	7197
1	1865	7198
1	1883	7199
1	1887	7200
1	1878	7201
1	1857	7202
1	1832	7203
1	1795	7204
1	1751	7205
1	1713	7206
1	1693	7207
1	1686	7208
1	1672	7209
1	1662	7210
1	1658	7211
1	1647	7212
1	1651	7213
1	1665	7214
1	1682	7215
1	1695	7216
1	1706	7217
1	1722	7218
1	1739	7219
1	1751	7220
1	1744	7221
1	1735	7222
1	1723	7223
1	1710	7224
1	1692	7225
1	1667	7226
1	1638	7227
1	1611	7228
1	1587	7229
1	1574	7230
1	1557	7231
1	1557	7232
1	1555	7233
1	1555	7234
1	1563	7235
1	1581	7236
1	1607	7237
1	1634	7238
1	1658	7239
1	1682	7240
1	1690	7241
1	1688	7242
1	1685	7243
1	1690	7244
1	1683	7245
1	1670	7246
1	1649	7247
1	1618	7248
1	1585	7249
1	1565	7250
1	1555	7251
1	1557	7252
1	1564	7253
1	1577	7254
1	1593	7255
1	1611	7256
1	1632	7257
1	1638	7258
1	1651	7259
1	1657	7260
1	1657	7261
1	1660	7262
1	1661	7263
1	1649	7264
1	1619	7265
1	1585	7266
1	1568	7267
1	1554	7268
1	1536	7269
1	1526	7270
1	1515	7271
1	1503	7272
1	1502	7273
1	1519	7274
1	1544	7275
1	1579	7276
1	1611	7277
1	1646	7278
1	1675	7279
1	1707	7280
1	1731	7281
1	1742	7282
1	1742	7283
1	1732	7284
1	1723	7285
1	1712	7286
1	1702	7287
1	1695	7288
1	1681	7289
1	1661	7290
1	1659	7291
1	1659	7292
1	1652	7293
1	1647	7294
1	1655	7295
1	1668	7296
1	1698	7297
1	1724	7298
1	1745	7299
1	1764	7300
1	1764	7301
1	1757	7302
1	1739	7303
1	1737	7304
1	1712	7305
1	1686	7306
1	1661	7307
1	1639	7308
1	1622	7309
1	1607	7310
1	1599	7311
1	1593	7312
1	1593	7313
1	1593	7314
1	1601	7315
1	1612	7316
1	1639	7317
1	1675	7318
1	1724	7319
1	1760	7320
1	1789	7321
1	1801	7322
1	1817	7323
1	1811	7324
1	1796	7325
1	1778	7326
1	1752	7327
1	1721	7328
1	1691	7329
1	1665	7330
1	1649	7331
1	1646	7332
1	1647	7333
1	1659	7334
1	1676	7335
1	1694	7336
1	1717	7337
1	1738	7338
1	1751	7339
1	1752	7340
1	1738	7341
1	1716	7342
1	1698	7343
1	1677	7344
1	1660	7345
1	1647	7346
1	1634	7347
1	1609	7348
1	1596	7349
1	1590	7350
1	1594	7351
1	1608	7352
1	1630	7353
1	1649	7354
1	1680	7355
1	1712	7356
1	1739	7357
1	1761	7358
1	1773	7359
1	1785	7360
1	1791	7361
1	1795	7362
1	1802	7363
1	1809	7364
1	1790	7365
1	1764	7366
1	1738	7367
1	1704	7368
1	1683	7369
1	1671	7370
1	1662	7371
1	1661	7372
1	1659	7373
1	1652	7374
1	1656	7375
1	1670	7376
1	1686	7377
1	1701	7378
1	1726	7379
1	1747	7380
1	1769	7381
1	1787	7382
1	1792	7383
1	1790	7384
1	1778	7385
1	1760	7386
1	1739	7387
1	1718	7388
1	1679	7389
1	1634	7390
1	1593	7391
1	1561	7392
1	1547	7393
1	1555	7394
1	1566	7395
1	1593	7396
1	1633	7397
1	1674	7398
1	1710	7399
1	1737	7400
1	1763	7401
1	1781	7402
1	1785	7403
1	1767	7404
1	1738	7405
1	1710	7406
1	1674	7407
1	1633	7408
1	1597	7409
1	1555	7410
1	1521	7411
1	1498	7412
1	1481	7413
1	1489	7414
1	1510	7415
1	1544	7416
1	1587	7417
1	1638	7418
1	1675	7419
1	1698	7440
1	1715	7441
1	1724	7442
1	1720	7443
1	1708	7444
1	1682	7445
1	1642	7446
1	1602	7447
1	1558	7448
1	1520	7449
1	1492	7450
1	1472	7451
1	1466	7452
1	1478	7453
1	1503	7454
1	1524	7455
1	1551	7456
1	1577	7457
1	1602	7458
1	1616	7459
1	1705	7420
1	1712	7421
1	1719	7422
1	1721	7423
1	1717	7424
1	1699	7425
1	1686	7426
1	1664	7427
1	1644	7428
1	1625	7429
1	1616	7430
1	1607	7431
1	1606	7432
1	1600	7433
1	1593	7434
1	1607	7435
1	1621	7436
1	1645	7437
1	1665	7438
1	1682	7439
1	1625	7460
1	1634	7461
1	1643	7462
1	1650	7463
1	1652	7464
1	1649	7465
1	1645	7466
1	1631	7467
1	1611	7468
1	1594	7469
1	1566	7470
1	1542	7471
1	1517	7472
1	1501	7473
1	1503	7474
1	1529	7475
1	1565	7476
1	1607	7477
1	1648	7478
1	1684	7479
1	2146	7500
1	2137	7501
1	2102	7502
1	2048	7503
1	1985	7504
1	1922	7505
1	1856	7506
1	1789	7507
1	1717	7508
1	1634	7509
1	1542	7510
1	1460	7511
1	1402	7512
1	1363	7513
1	1346	7514
1	1343	7515
1	1359	7516
1	1384	7517
1	1422	7518
1	1448	7519
1	1707	7480
1	1722	7481
1	1716	7482
1	1706	7483
1	1708	7484
1	1703	7485
1	1703	7486
1	1699	7487
1	1701	7488
1	1718	7489
1	1743	7490
1	1778	7491
1	1828	7492
1	1873	7493
1	1909	7494
1	1956	7495
1	2000	7496
1	2045	7497
1	2088	7498
1	2129	7499
1	1476	7520
1	1490	7521
1	1502	7522
1	1503	7523
1	1501	7524
1	1492	7525
1	1474	7526
1	1454	7527
1	1449	7528
1	1436	7529
1	1436	7530
1	1445	7531
1	1453	7532
1	1475	7533
1	1482	7534
1	1492	7535
1	1503	7536
1	1518	7537
1	1537	7538
1	1555	7539
1	1580	7540
1	1607	7541
1	1626	7542
1	1634	7543
1	1646	7544
1	1652	7545
1	1656	7546
1	1654	7547
1	1652	7548
1	1630	7549
1	1598	7550
1	1568	7551
1	1550	7552
1	1545	7553
1	1550	7554
1	1566	7555
1	1581	7556
1	1593	7557
1	1608	7558
1	1635	7559
1	1663	7560
1	1693	7561
1	1715	7562
1	1731	7563
1	1730	7564
1	1710	7565
1	1676	7566
1	1633	7567
1	1592	7568
1	1548	7569
1	1523	7570
1	1508	7571
1	1505	7572
1	1514	7573
1	1530	7574
1	1552	7575
1	1577	7576
1	1607	7577
1	1646	7578
1	1677	7579
1	1714	7580
1	1752	7581
1	1781	7582
1	1793	7583
1	1798	7584
1	1792	7585
1	1767	7586
1	1728	7587
1	1675	7588
1	1632	7589
1	1583	7590
1	1548	7591
1	1530	7592
1	1530	7593
1	1547	7594
1	1580	7595
1	1615	7596
1	1647	7597
1	1680	7598
1	1699	7599
1	1724	7600
1	1738	7601
1	1743	7602
1	1738	7603
1	1736	7604
1	1712	7605
1	1677	7606
1	1630	7607
1	1580	7608
1	1539	7609
1	1508	7610
1	1494	7611
1	1502	7612
1	1521	7613
1	1546	7614
1	1581	7615
1	1616	7616
1	1656	7617
1	1698	7618
1	1746	7619
1	1772	7620
1	1775	7621
1	1764	7622
1	1751	7623
1	1712	7624
1	1673	7625
1	1632	7626
1	1585	7627
1	1551	7628
1	1529	7629
1	1526	7630
1	1530	7631
1	1540	7632
1	1555	7633
1	1579	7634
1	1607	7635
1	1634	7636
1	1665	7637
1	1708	7638
1	1738	7639
1	1762	7640
1	1778	7641
1	1796	7642
1	1808	7643
1	1791	7644
1	1773	7645
1	1755	7646
1	1737	7647
1	1712	7648
1	1700	7649
1	1679	7650
1	1657	7651
1	1638	7652
1	1631	7653
1	1641	7654
1	1660	7655
1	1693	7656
1	1729	7657
1	1769	7658
1	1817	7659
1	1859	7660
1	1895	7661
1	1921	7662
1	1931	7663
1	1926	7664
1	1900	7665
1	1868	7666
1	1828	7667
1	1778	7668
1	1727	7669
1	1677	7670
1	1643	7671
1	1629	7672
1	1629	7673
1	1634	7674
1	1657	7675
1	1699	7676
1	1750	7677
1	1793	7678
1	1843	7679
1	2006	7700
1	2030	7701
1	2039	7702
1	2037	7703
1	2017	7704
1	1991	7705
1	1957	7706
1	1922	7707
1	1890	7708
1	1870	7709
1	1850	7710
1	1832	7711
1	1830	7712
1	1843	7713
1	1868	7714
1	1890	7715
1	1910	7716
1	1926	7717
1	1938	7718
1	1946	7719
1	1871	7680
1	1895	7681
1	1904	7682
1	1908	7683
1	1904	7684
1	1896	7685
1	1881	7686
1	1860	7687
1	1842	7688
1	1817	7689
1	1791	7690
1	1766	7691
1	1751	7692
1	1749	7693
1	1764	7694
1	1783	7695
1	1824	7696
1	1877	7697
1	1926	7698
1	1974	7699
1	1953	7720
1	1958	7721
1	1960	7722
1	1958	7723
1	1944	7724
1	1917	7725
1	1895	7726
1	1854	7727
1	1808	7728
1	1764	7729
1	1729	7730
1	1701	7731
1	1675	7732
1	1672	7733
1	1677	7734
1	1701	7735
1	1724	7736
1	1747	7737
1	1769	7738
1	1792	7739
1	1825	7740
1	1852	7741
1	1881	7742
1	1891	7743
1	1881	7744
1	1856	7745
1	1838	7746
1	1812	7747
1	1778	7748
1	1744	7749
1	1710	7750
1	1672	7751
1	1651	7752
1	1648	7753
1	1673	7754
1	1698	7755
1	1725	7756
1	1746	7757
1	1752	7758
1	1757	7759
1	1654	7780
1	1643	7781
1	1631	7782
1	1613	7783
1	1597	7784
1	1580	7785
1	1562	7786
1	1561	7787
1	1566	7788
1	1567	7789
1	1569	7790
1	1579	7791
1	1581	7792
1	1584	7793
1	1581	7794
1	1581	7795
1	1581	7796
1	1581	7797
1	1594	7798
1	1620	7799
1	1760	7760
1	1763	7761
1	1762	7762
1	1747	7763
1	1717	7764
1	1691	7765
1	1657	7766
1	1618	7767
1	1571	7768
1	1527	7769
1	1494	7770
1	1481	7771
1	1490	7772
1	1511	7773
1	1543	7774
1	1580	7775
1	1618	7776
1	1646	7777
1	1661	7778
1	1660	7779
1	1635	7800
1	1650	7801
1	1658	7802
1	1660	7803
1	1657	7804
1	1649	7805
1	1633	7806
1	1597	7807
1	1555	7808
1	1510	7809
1	1478	7810
1	1465	7811
1	1472	7812
1	1493	7813
1	1535	7814
1	1577	7815
1	1616	7816
1	1651	7817
1	1682	7818
1	1709	7819
1	1731	7820
1	1736	7821
1	1738	7822
1	1737	7823
1	1729	7824
1	1714	7825
1	1686	7826
1	1649	7827
1	1608	7828
1	1556	7829
1	1512	7830
1	1466	7831
1	1424	7832
1	1398	7833
1	1398	7834
1	1424	7835
1	1474	7836
1	1538	7837
1	1605	7838
1	1652	7839
1	1699	7840
1	1736	7841
1	1747	7842
1	1750	7843
1	1748	7844
1	1738	7845
1	1720	7846
1	1703	7847
1	1690	7848
1	1682	7849
1	1672	7850
1	1673	7851
1	1673	7852
1	1679	7853
1	1685	7854
1	1696	7855
1	1711	7856
1	1729	7857
1	1747	7858
1	1761	7859
1	1752	7860
1	1741	7861
1	1727	7862
1	1712	7863
1	1695	7864
1	1680	7865
1	1659	7866
1	1639	7867
1	1633	7868
1	1620	7869
1	1620	7870
1	1634	7871
1	1649	7872
1	1669	7873
1	1693	7874
1	1710	7875
1	1720	7876
1	1731	7877
1	1743	7878
1	1751	7879
1	1742	7880
1	1731	7881
1	1720	7882
1	1712	7883
1	1714	7884
1	1714	7885
1	1706	7886
1	1683	7887
1	1660	7888
1	1655	7889
1	1636	7890
1	1623	7891
1	1620	7892
1	1627	7893
1	1635	7894
1	1652	7895
1	1672	7896
1	1701	7897
1	1741	7898
1	1772	7899
1	1803	7900
1	1832	7901
1	1844	7902
1	1849	7903
1	1854	7904
1	1841	7905
1	1811	7906
1	1775	7907
1	1751	7908
1	1728	7909
1	1695	7910
1	1661	7911
1	1634	7912
1	1607	7913
1	1595	7914
1	1616	7915
1	1647	7916
1	1687	7917
1	1731	7918
1	1770	7919
1	1791	7920
1	1798	7921
1	1800	7922
1	1792	7923
1	1770	7924
1	1751	7925
1	1728	7926
1	1709	7927
1	1690	7928
1	1674	7929
1	1656	7930
1	1634	7931
1	1620	7932
1	1607	7933
1	1600	7934
1	1595	7935
1	1593	7936
1	1604	7937
1	1631	7938
1	1656	7939
1	1672	7940
1	1685	7941
1	1692	7942
1	1697	7943
1	1690	7944
1	1686	7945
1	1674	7946
1	1659	7947
1	1637	7948
1	1620	7949
1	1607	7950
1	1605	7951
1	1603	7952
1	1598	7953
1	1603	7954
1	1618	7955
1	1630	7956
1	1639	7957
1	1657	7958
1	1661	7959
1	1665	7960
1	1664	7961
1	1657	7962
1	1641	7963
1	1622	7964
1	1593	7965
1	1566	7966
1	1543	7967
1	1526	7968
1	1512	7969
1	1512	7970
1	1519	7971
1	1529	7972
1	1543	7973
1	1554	7974
1	1571	7975
1	1596	7976
1	1625	7977
1	1652	7978
1	1682	7979
1	1696	7980
1	1705	7981
1	1705	7982
1	1692	7983
1	1678	7984
1	1661	7985
1	1654	7986
1	1647	7987
1	1630	7988
1	1602	7989
1	1582	7990
1	1572	7991
1	1556	7992
1	1542	7993
1	1534	7994
1	1531	7995
1	1542	7996
1	1564	7997
1	1593	7998
1	1624	7999
1	1641	8000
1	1656	8000
1	1665	8002
1	1677	8003
1	1670	8004
1	1660	8005
1	1638	8006
1	1610	8007
1	1580	8008
1	1553	8009
1	1517	8010
1	1489	8011
1	1477	8012
1	1480	8013
1	1498	8013
1	1514	8015
1	1532	8016
1	1561	8016
1	1592	8018
1	1622	8019
1	1656	8020
1	1681	8021
1	1718	8022
1	1757	8023
1	1802	8024
1	1832	8025
1	1865	8026
1	1882	8027
1	1891	8028
1	1895	8029
1	1896	8029
1	1895	8031
1	1908	8032
1	1922	8032
1	1937	8034
1	1967	8035
1	1999	8036
1	2026	8037
1	2045	8038
1	2052	8039
1	2055	8040
1	2044	8041
1	2018	8042
1	1976	8043
1	1935	8044
1	1892	8045
1	1835	8045
1	1757	8047
1	1681	8048
1	1595	8048
1	1521	8050
1	1461	8051
1	1409	8052
1	1373	8053
1	1366	8054
1	1364	8055
1	1375	8056
1	1395	8057
1	1409	8058
1	1424	8059
1	1429	8060
1	1427	8061
1	1424	8061
1	1423	8063
1	1417	8064
1	1424	8064
1	1438	8066
1	1456	8067
1	1472	8068
1	1485	8069
1	1487	8070
1	1486	8071
1	1489	8072
1	1503	8073
1	1527	8074
1	1549	8074
1	1569	8076
1	1590	8077
1	1606	8077
1	1617	8079
1	1646	8080
1	1665	8080
1	1674	8082
1	1663	8083
1	1654	8084
1	1634	8085
1	1613	8086
1	1596	8087
1	1577	8088
1	1557	8089
1	1543	8090
1	1533	8090
1	1530	8092
1	1531	8093
1	1537	8093
1	1555	8095
1	1583	8096
1	1613	8096
1	1638	8098
1	1659	8099
1	1667	8100
1	1680	8101
1	1686	8102
1	1674	8103
1	1647	8104
1	1613	8105
1	1581	8106
1	1542	8106
1	1503	8108
1	1467	8109
1	1445	8109
1	1439	8111
1	1450	8112
1	1472	8113
1	1504	8114
1	1539	8115
1	1570	8116
1	1595	8117
1	1624	8118
1	1648	8119
1	1669	8120
1	1682	8121
1	1693	8122
1	1688	8122
1	1680	8124
1	1672	8125
1	1665	8125
1	1660	8127
1	1650	8128
1	1634	8129
1	1618	8130
1	1602	8131
1	1590	8132
1	1593	8133
1	1594	8134
1	1604	8135
1	1618	8136
1	1636	8137
1	1650	8138
1	1655	8138
1	1660	8140
1	1655	8141
1	1639	8141
1	1618	8143
1	1609	8144
1	1602	8145
1	1590	8146
1	1580	8147
1	1561	8148
1	1543	8149
1	1533	8150
1	1533	8151
1	1543	8152
1	1559	8153
1	1581	8154
1	1612	8154
1	1646	8156
1	1678	8157
1	1708	8157
1	1738	8159
1	1661	8180
1	1660	8181
1	1665	8182
1	1670	8183
1	1669	8184
1	1664	8185
1	1661	8186
1	1658	8186
1	1642	8188
1	1625	8189
1	1606	8189
1	1593	8191
1	1594	8192
1	1607	8193
1	1638	8194
1	1686	8195
1	1738	8196
1	1790	8197
1	1830	8198
1	1843	8199
1	1746	8160
1	1742	8161
1	1734	8162
1	1713	8163
1	1688	8164
1	1665	8165
1	1638	8166
1	1616	8167
1	1593	8168
1	1569	8169
1	1559	8170
1	1557	8170
1	1566	8172
1	1581	8173
1	1606	8173
1	1625	8175
1	1647	8176
1	1661	8177
1	1665	8178
1	1664	8179
1	1841	8200
1	1829	8201
1	1795	8202
1	1764	8203
1	1734	8204
1	1689	8205
1	1656	8206
1	1629	8207
1	1607	8208
1	1607	8209
1	1625	8210
1	1644	8211
1	1670	8212
1	1695	8213
1	1712	8214
1	1733	8215
1	1749	8216
1	1772	8217
1	1802	8218
1	1841	8219
1	1868	8220
1	1885	8221
1	1890	8222
1	1899	8223
1	1893	8224
1	1882	8225
1	1869	8226
1	1856	8227
1	1837	8228
1	1814	8229
1	1790	8230
1	1774	8231
1	1773	8232
1	1787	8233
1	1812	8234
1	1837	8235
1	1858	8236
1	1883	8237
1	1918	8238
1	1942	8239
1	1962	8240
1	1976	8241
1	1985	8242
1	1979	8243
1	1948	8244
1	1920	8245
1	1895	8246
1	1867	8247
1	1826	8248
1	1782	8249
1	1734	8250
1	1690	8251
1	1665	8252
1	1660	8253
1	1678	8254
1	1712	8255
1	1762	8256
1	1813	8257
1	1852	8258
1	1880	8259
1	1906	8260
1	1922	8261
1	1935	8262
1	1935	8263
1	1926	8264
1	1897	8265
1	1863	8266
1	1832	8267
1	1803	8268
1	1782	8269
1	1765	8270
1	1755	8271
1	1750	8272
1	1747	8273
1	1741	8274
1	1742	8275
1	1752	8276
1	1764	8277
1	1769	8278
1	1778	8279
1	1777	8280
1	1775	8281
1	1769	8282
1	1760	8283
1	1751	8284
1	1737	8285
1	1702	8286
1	1662	8287
1	1631	8288
1	1598	8289
1	1582	8290
1	1572	8291
1	1566	8292
1	1570	8293
1	1581	8294
1	1585	8295
1	1598	8296
1	1616	8297
1	1638	8298
1	1651	8299
1	1660	8300
1	1661	8301
1	1661	8302
1	1659	8303
1	1644	8304
1	1620	8305
1	1593	8306
1	1560	8307
1	1532	8308
1	1523	8309
1	1513	8310
1	1510	8311
1	1508	8312
1	1517	8313
1	1524	8314
1	1530	8315
1	1546	8316
1	1557	8317
1	1562	8318
1	1564	8319
1	1581	8320
1	1603	8321
1	1622	8322
1	1625	8323
1	1618	8324
1	1594	8325
1	1584	8326
1	1564	8327
1	1553	8328
1	1526	8329
1	1500	8330
1	1478	8331
1	1482	8332
1	1494	8333
1	1517	8334
1	1544	8335
1	1571	8336
1	1595	8337
1	1610	8338
1	1613	8339
1	1612	8340
1	1613	8341
1	1619	8342
1	1595	8343
1	1566	8344
1	1538	8345
1	1508	8346
1	1476	8347
1	1446	8348
1	1423	8349
1	1413	8350
1	1416	8351
1	1423	8352
1	1441	8353
1	1471	8354
1	1492	8355
1	1520	8356
1	1555	8357
1	1584	8358
1	1607	8359
1	1664	8380
1	1661	8381
1	1643	8382
1	1608	8383
1	1564	8384
1	1518	8385
1	1482	8386
1	1454	8387
1	1432	8388
1	1423	8389
1	1430	8390
1	1448	8391
1	1466	8392
1	1490	8393
1	1520	8394
1	1554	8395
1	1593	8396
1	1628	8397
1	1661	8398
1	1684	8399
1	1620	8360
1	1628	8361
1	1629	8362
1	1625	8363
1	1618	8364
1	1612	8365
1	1602	8366
1	1593	8367
1	1585	8368
1	1582	8369
1	1568	8370
1	1555	8371
1	1545	8372
1	1546	8373
1	1553	8374
1	1570	8375
1	1590	8376
1	1608	8377
1	1635	8378
1	1652	8379
1	1697	8400
1	1705	8401
1	1705	8402
1	1698	8403
1	1679	8404
1	1652	8405
1	1620	8406
1	1593	8407
1	1571	8408
1	1553	8409
1	1544	8410
1	1541	8411
1	1539	8412
1	1542	8413
1	1546	8414
1	1555	8415
1	1574	8416
1	1598	8417
1	1634	8418
1	1674	8419
1	1647	8440
1	1639	8441
1	1631	8442
1	1621	8443
1	1611	8444
1	1597	8445
1	1584	8446
1	1582	8447
1	1577	8448
1	1571	8449
1	1568	8450
1	1564	8451
1	1566	8452
1	1575	8453
1	1580	8454
1	1600	8455
1	1632	8456
1	1660	8457
1	1686	8458
1	1712	8459
1	1710	8420
1	1721	8421
1	1718	8422
1	1698	8423
1	1672	8424
1	1636	8425
1	1607	8426
1	1587	8427
1	1579	8428
1	1564	8429
1	1555	8430
1	1551	8431
1	1563	8432
1	1589	8433
1	1609	8434
1	1625	8435
1	1638	8436
1	1654	8437
1	1661	8438
1	1656	8439
1	1599	8480
1	1603	8481
1	1600	8482
1	1586	8483
1	1550	8484
1	1508	8485
1	1466	8486
1	1423	8487
1	1395	8488
1	1369	8489
1	1351	8490
1	1346	8491
1	1356	8492
1	1392	8493
1	1424	8494
1	1454	8495
1	1490	8496
1	1521	8497
1	1548	8498
1	1567	8499
1	1718	8460
1	1712	8461
1	1688	8462
1	1654	8463
1	1615	8464
1	1581	8465
1	1544	8466
1	1518	8467
1	1502	8468
1	1485	8469
1	1478	8470
1	1476	8471
1	1473	8472
1	1476	8473
1	1495	8474
1	1508	8475
1	1529	8476
1	1545	8477
1	1566	8478
1	1584	8479
1	1586	8500
1	1603	8501
1	1605	8502
1	1592	8503
1	1576	8504
1	1553	8505
1	1526	8506
1	1501	8507
1	1469	8508
1	1432	8509
1	1398	8510
1	1372	8511
1	1368	8512
1	1379	8513
1	1413	8514
1	1450	8515
1	1488	8516
1	1522	8517
1	1566	8518
1	1603	8519
1	1633	8520
1	1641	8521
1	1651	8522
1	1636	8523
1	1616	8524
1	1585	8525
1	1555	8526
1	1516	8527
1	1484	8528
1	1453	8529
1	1436	8530
1	1425	8531
1	1424	8532
1	1436	8533
1	1459	8534
1	1485	8535
1	1503	8536
1	1518	8537
1	1541	8538
1	1545	8539
1	1542	8540
1	1528	8541
1	1511	8542
1	1493	8543
1	1461	8544
1	1436	8545
1	1413	8546
1	1379	8547
1	1350	8548
1	1346	8549
1	1346	8550
1	1355	8551
1	1372	8552
1	1402	8553
1	1433	8554
1	1472	8555
1	1508	8556
1	1556	8557
1	1613	8558
1	1669	8559
1	1734	8560
1	1801	8561
1	1856	8562
1	1896	8563
1	1921	8564
1	1927	8565
1	1922	8566
1	1903	8567
1	1875	8568
1	1860	8569
1	1852	8570
1	1845	8571
1	1836	8572
1	1822	8573
1	1796	8574
1	1788	8575
1	1787	8576
1	1787	8577
1	1791	8578
1	1780	8579
1	1750	8580
1	1705	8581
1	1651	8582
1	1589	8583
1	1521	8584
1	1453	8585
1	1383	8586
1	1319	8587
1	1278	8588
1	1242	8589
1	1220	8590
1	1197	8591
1	1188	8592
1	1206	8593
1	1238	8594
1	1275	8595
1	1322	8596
1	1372	8597
1	1424	8598
1	1467	8599
1	1503	8600
1	1519	8601
1	1515	8602
1	1503	8603
1	1485	8604
1	1473	8605
1	1461	8606
1	1449	8607
1	1441	8608
1	1433	8609
1	1422	8610
1	1403	8611
1	1399	8612
1	1398	8613
1	1400	8614
1	1413	8615
1	1438	8616
1	1467	8617
1	1500	8618
1	1512	8619
1	1596	8640
1	1603	8641
1	1607	8642
1	1589	8643
1	1563	8644
1	1529	8645
1	1493	8646
1	1454	8647
1	1422	8648
1	1384	8649
1	1376	8650
1	1377	8651
1	1392	8652
1	1422	8653
1	1462	8654
1	1512	8655
1	1559	8656
1	1593	8657
1	1613	8658
1	1630	8659
1	1520	8620
1	1529	8621
1	1537	8622
1	1539	8623
1	1540	8624
1	1527	8625
1	1520	8626
1	1499	8627
1	1482	8628
1	1465	8629
1	1450	8630
1	1450	8631
1	1459	8632
1	1463	8633
1	1477	8634
1	1500	8635
1	1525	8636
1	1541	8637
1	1557	8638
1	1580	8639
1	1638	8660
1	1647	8661
1	1649	8662
1	1635	8663
1	1607	8664
1	1575	8665
1	1535	8666
1	1494	8667
1	1468	8668
1	1441	8669
1	1424	8670
1	1422	8671
1	1425	8672
1	1445	8673
1	1469	8674
1	1499	8675
1	1529	8676
1	1553	8677
1	1571	8678
1	1577	8679
1	1576	8680
1	1570	8681
1	1550	8682
1	1530	8683
1	1512	8684
1	1489	8685
1	1461	8686
1	1435	8687
1	1423	8688
1	1415	8689
1	1418	8690
1	1424	8691
1	1430	8692
1	1446	8693
1	1469	8694
1	1501	8695
1	1533	8696
1	1571	8697
1	1611	8698
1	1647	8699
1	1674	8700
1	1678	8701
1	1664	8702
1	1647	8703
1	1630	8704
1	1597	8705
1	1566	8706
1	1527	8707
1	1489	8708
1	1450	8709
1	1429	8710
1	1418	8711
1	1419	8712
1	1440	8713
1	1471	8714
1	1508	8715
1	1552	8716
1	1587	8717
1	1625	8718
1	1661	8719
1	1694	8720
1	1712	8721
1	1736	8722
1	1746	8723
1	1738	8724
1	1708	8725
1	1665	8726
1	1621	8727
1	1583	8728
1	1558	8729
1	1544	8730
1	1529	8731
1	1525	8732
1	1530	8733
1	1539	8734
1	1549	8735
1	1564	8736
1	1582	8737
1	1607	8738
1	1621	8739
1	1646	8740
1	1669	8741
1	1688	8742
1	1699	8743
1	1710	8744
1	1708	8745
1	1688	8746
1	1660	8747
1	1618	8748
1	1581	8749
1	1553	8750
1	1543	8751
1	1558	8752
1	1597	8753
1	1645	8754
1	1701	8755
1	1764	8756
1	1817	8757
1	1857	8758
1	1890	8759
1	1899	8760
1	1895	8761
1	1882	8762
1	1856	8763
1	1817	8764
1	1765	8765
1	1720	8766
1	1692	8767
1	1671	8768
1	1660	8769
1	1660	8770
1	1660	8771
1	1664	8772
1	1678	8773
1	1699	8774
1	1722	8775
1	1746	8776
1	1764	8777
1	1788	8778
1	1801	8779
1	1814	8780
1	1819	8781
1	1825	8782
1	1825	8783
1	1803	8784
1	1786	8785
1	1769	8786
1	1751	8787
1	1738	8788
1	1724	8789
1	1713	8790
1	1708	8791
1	1705	8792
1	1705	8793
1	1706	8794
1	1710	8795
1	1717	8796
1	1738	8797
1	1751	8798
1	1757	8799
1	1765	8800
1	1769	8801
1	1769	8802
1	1769	8803
1	1762	8804
1	1742	8805
1	1715	8806
1	1677	8807
1	1641	8808
1	1607	8809
1	1581	8810
1	1567	8811
1	1559	8812
1	1556	8813
1	1555	8814
1	1581	8815
1	1612	8816
1	1647	8817
1	1674	8818
1	1690	8819
1	1701	8820
1	1700	8821
1	1688	8822
1	1656	8823
1	1616	8824
1	1582	8825
1	1559	8826
1	1533	8827
1	1502	8828
1	1475	8829
1	1461	8830
1	1461	8831
1	1466	8832
1	1481	8833
1	1495	8834
1	1512	8835
1	1539	8836
1	1562	8837
1	1587	8838
1	1600	8839
1	1608	8840
1	1612	8841
1	1608	8842
1	1587	8843
1	1551	8844
1	1515	8845
1	1482	8846
1	1455	8847
1	1425	8848
1	1400	8849
1	1377	8850
1	1371	8851
1	1372	8852
1	1380	8853
1	1400	8854
1	1424	8855
1	1450	8856
1	1489	8857
1	1529	8858
1	1565	8859
1	1596	8860
1	1618	8861
1	1629	8862
1	1629	8863
1	1609	8864
1	1577	8865
1	1533	8866
1	1493	8867
1	1459	8868
1	1437	8869
1	1436	8870
1	1450	8871
1	1472	8872
1	1484	8873
1	1491	8874
1	1503	8875
1	1521	8876
1	1538	8877
1	1560	8878
1	1579	8879
1	1592	8880
1	1607	8881
1	1616	8882
1	1616	8883
1	1609	8884
1	1595	8885
1	1577	8886
1	1548	8887
1	1517	8888
1	1476	8889
1	1451	8890
1	1436	8891
1	1433	8892
1	1445	8893
1	1454	8894
1	1469	8895
1	1485	8896
1	1498	8897
1	1503	8898
1	1515	8899
1	1523	8900
1	1525	8901
1	1520	8902
1	1517	8903
1	1503	8904
1	1497	8905
1	1488	8906
1	1474	8907
1	1461	8908
1	1445	8909
1	1437	8910
1	1443	8911
1	1446	8912
1	1450	8913
1	1463	8914
1	1485	8915
1	1517	8916
1	1540	8917
1	1575	8918
1	1607	8919
1	1641	8920
1	1660	8921
1	1674	8922
1	1677	8923
1	1674	8924
1	1654	8925
1	1630	8926
1	1597	8927
1	1556	8928
1	1520	8929
1	1491	8930
1	1469	8931
1	1455	8932
1	1456	8933
1	1476	8934
1	1503	8935
1	1532	8936
1	1556	8937
1	1591	8938
1	1619	8939
1	1629	8940
1	1629	8941
1	1613	8942
1	1598	8943
1	1586	8944
1	1580	8945
1	1563	8946
1	1543	8947
1	1521	8948
1	1494	8949
1	1476	8950
1	1462	8951
1	1459	8952
1	1474	8953
1	1503	8954
1	1531	8955
1	1564	8956
1	1605	8957
1	1639	8958
1	1670	8959
1	1692	8960
1	1713	8961
1	1737	8962
1	1747	8963
1	1735	8964
1	1712	8965
1	1679	8966
1	1645	8967
1	1610	8968
1	1571	8969
1	1539	8970
1	1515	8971
1	1513	8972
1	1521	8973
1	1539	8974
1	1557	8975
1	1577	8976
1	1592	8977
1	1607	8978
1	1624	8979
1	1643	8980
1	1647	8981
1	1646	8982
1	1649	8983
1	1661	8984
1	1666	8985
1	1660	8986
1	1647	8987
1	1633	8988
1	1620	8989
1	1616	8990
1	1616	8991
1	1633	8992
1	1652	8993
1	1659	8994
1	1661	8995
1	1661	8996
1	1665	8997
1	1677	8998
1	1686	8999
1	1682	9000
1	1672	9001
1	1657	9002
1	1633	9003
1	1606	9004
1	1577	9005
1	1555	9006
1	1539	9007
1	1532	9008
1	1534	9009
1	1553	9010
1	1577	9011
1	1607	9012
1	1647	9013
1	1682	9014
1	1710	9015
1	1725	9016
1	1733	9017
1	1736	9018
1	1733	9019
1	1713	9020
1	1685	9021
1	1649	9022
1	1598	9023
1	1551	9024
1	1515	9025
1	1494	9026
1	1487	9027
1	1489	9028
1	1492	9029
1	1503	9030
1	1520	9031
1	1549	9032
1	1582	9033
1	1599	9034
1	1609	9035
1	1611	9036
1	1609	9037
1	1602	9038
1	1581	9039
1	1563	9040
1	1553	9041
1	1548	9042
1	1546	9043
1	1548	9044
1	1542	9045
1	1529	9046
1	1510	9047
1	1497	9048
1	1481	9049
1	1474	9050
1	1476	9051
1	1485	9052
1	1503	9053
1	1515	9054
1	1536	9055
1	1564	9056
1	1592	9057
1	1619	9058
1	1634	9059
1	1636	9060
1	1630	9061
1	1607	9062
1	1579	9063
1	1539	9064
1	1503	9065
1	1467	9066
1	1431	9067
1	1398	9068
1	1369	9069
1	1360	9070
1	1372	9071
1	1399	9072
1	1437	9073
1	1481	9074
1	1528	9075
1	1580	9076
1	1634	9077
1	1681	9078
1	1710	9079
1	1723	9080
1	1717	9081
1	1705	9082
1	1679	9083
1	1634	9084
1	1578	9085
1	1517	9086
1	1474	9087
1	1429	9088
1	1398	9089
1	1368	9090
1	1351	9091
1	1364	9092
1	1398	9093
1	1430	9094
1	1471	9095
1	1526	9096
1	1579	9097
1	1625	9098
1	1647	9099
1	1663	9100
1	1665	9101
1	1652	9102
1	1632	9103
1	1607	9104
1	1572	9105
1	1538	9106
1	1502	9107
1	1471	9108
1	1451	9109
1	1449	9110
1	1450	9111
1	1469	9112
1	1500	9113
1	1535	9114
1	1587	9115
1	1648	9116
1	1716	9117
1	1789	9118
1	1856	9119
1	1914	9120
1	1948	9121
1	1970	9122
1	1987	9123
1	1985	9124
1	1983	9125
1	1979	9126
1	1970	9127
1	1949	9128
1	1922	9129
1	1884	9130
1	1854	9131
1	1830	9132
1	1809	9133
1	1785	9134
1	1764	9135
1	1738	9136
1	1717	9137
1	1707	9138
1	1686	9139
1	1604	9160
1	1608	9161
1	1606	9162
1	1599	9163
1	1573	9164
1	1548	9165
1	1526	9166
1	1507	9167
1	1494	9168
1	1487	9169
1	1482	9170
1	1485	9171
1	1489	9172
1	1494	9173
1	1492	9174
1	1491	9175
1	1501	9176
1	1509	9177
1	1525	9178
1	1527	9179
1	1682	9200
1	1669	9201
1	1654	9202
1	1635	9203
1	1608	9204
1	1581	9205
1	1553	9206
1	1525	9207
1	1503	9208
1	1492	9209
1	1482	9210
1	1482	9211
1	1491	9212
1	1508	9213
1	1528	9214
1	1544	9215
1	1555	9216
1	1557	9217
1	1562	9218
1	1569	9219
1	1654	9140
1	1613	9141
1	1564	9142
1	1508	9143
1	1444	9144
1	1375	9145
1	1310	9146
1	1249	9147
1	1206	9148
1	1194	9149
1	1199	9150
1	1220	9151
1	1265	9152
1	1312	9153
1	1357	9154
1	1409	9155
1	1454	9156
1	1494	9157
1	1542	9158
1	1580	9159
1	1523	9180
1	1515	9181
1	1503	9182
1	1485	9183
1	1467	9184
1	1464	9185
1	1476	9186
1	1499	9187
1	1521	9188
1	1533	9189
1	1542	9190
1	1543	9191
1	1542	9192
1	1554	9193
1	1583	9194
1	1610	9195
1	1634	9196
1	1659	9197
1	1678	9198
1	1684	9199
1	1580	9220
1	1587	9221
1	1594	9222
1	1595	9223
1	1598	9224
1	1589	9225
1	1584	9226
1	1570	9227
1	1556	9228
1	1535	9229
1	1514	9230
1	1503	9231
1	1503	9232
1	1506	9233
1	1505	9234
1	1517	9235
1	1543	9236
1	1580	9237
1	1621	9238
1	1654	9239
1	1677	9240
1	1688	9241
1	1684	9242
1	1669	9243
1	1656	9244
1	1636	9245
1	1611	9246
1	1593	9247
1	1580	9248
1	1562	9249
1	1563	9250
1	1580	9251
1	1597	9252
1	1610	9253
1	1629	9254
1	1638	9255
1	1646	9256
1	1652	9257
1	1661	9258
1	1665	9259
1	1665	9260
1	1665	9261
1	1664	9262
1	1657	9263
1	1634	9264
1	1623	9265
1	1613	9266
1	1607	9267
1	1598	9268
1	1582	9269
1	1566	9270
1	1557	9271
1	1562	9272
1	1577	9273
1	1593	9274
1	1618	9275
1	1643	9276
1	1657	9277
1	1665	9278
1	1670	9279
1	1896	9300
1	1890	9301
1	1871	9302
1	1855	9303
1	1837	9304
1	1811	9305
1	1773	9306
1	1742	9307
1	1712	9308
1	1681	9309
1	1667	9310
1	1668	9311
1	1679	9312
1	1703	9313
1	1735	9314
1	1764	9315
1	1800	9316
1	1838	9317
1	1869	9318
1	1893	9319
1	1683	9280
1	1688	9281
1	1693	9282
1	1686	9283
1	1677	9284
1	1660	9285
1	1642	9286
1	1629	9287
1	1616	9288
1	1608	9289
1	1595	9290
1	1587	9291
1	1607	9292
1	1647	9293
1	1699	9294
1	1759	9295
1	1818	9296
1	1861	9297
1	1886	9298
1	1897	9299
1	1910	9320
1	1913	9321
1	1909	9322
1	1904	9323
1	1886	9324
1	1860	9325
1	1838	9326
1	1815	9327
1	1791	9328
1	1766	9329
1	1753	9330
1	1741	9331
1	1737	9332
1	1738	9333
1	1742	9334
1	1752	9335
1	1767	9336
1	1791	9337
1	1817	9338
1	1828	9339
1	1844	9340
1	1858	9341
1	1869	9342
1	1881	9343
1	1901	9344
1	1909	9345
1	1906	9346
1	1895	9347
1	1886	9348
1	1880	9349
1	1869	9350
1	1864	9351
1	1859	9352
1	1855	9353
1	1849	9354
1	1856	9355
1	1869	9356
1	1890	9357
1	1906	9358
1	1905	9359
1	1895	9360
1	1882	9361
1	1861	9362
1	1822	9363
1	1766	9364
1	1710	9365
1	1649	9366
1	1592	9367
1	1534	9368
1	1487	9369
1	1476	9370
1	1485	9371
1	1517	9372
1	1580	9373
1	1641	9374
1	1700	9375
1	1755	9376
1	1813	9377
1	1847	9378
1	1858	9379
1	1860	9380
1	1856	9381
1	1834	9382
1	1790	9383
1	1744	9384
1	1698	9385
1	1643	9386
1	1591	9387
1	1553	9388
1	1518	9389
1	1500	9390
1	1492	9391
1	1494	9392
1	1510	9393
1	1542	9394
1	1577	9395
1	1608	9396
1	1638	9397
1	1661	9398
1	1677	9399
1	1694	9400
1	1701	9401
1	1701	9402
1	1706	9403
1	1695	9404
1	1675	9405
1	1643	9406
1	1595	9407
1	1552	9408
1	1518	9409
1	1495	9410
1	1482	9411
1	1482	9412
1	1497	9413
1	1508	9414
1	1524	9415
1	1543	9416
1	1564	9417
1	1584	9418
1	1608	9419
1	1630	9420
1	1636	9421
1	1638	9422
1	1634	9423
1	1616	9424
1	1593	9425
1	1567	9426
1	1542	9427
1	1524	9428
1	1517	9429
1	1518	9430
1	1520	9431
1	1529	9432
1	1553	9433
1	1579	9434
1	1606	9435
1	1634	9436
1	1643	9437
1	1647	9438
1	1647	9439
1	1725	9460
1	1714	9461
1	1694	9462
1	1664	9463
1	1638	9464
1	1600	9465
1	1562	9466
1	1530	9467
1	1504	9468
1	1498	9469
1	1500	9470
1	1503	9471
1	1520	9472
1	1543	9473
1	1566	9474
1	1594	9475
1	1620	9476
1	1647	9477
1	1674	9478
1	1688	9479
1	1652	9440
1	1647	9441
1	1626	9442
1	1596	9443
1	1562	9444
1	1532	9445
1	1508	9446
1	1487	9447
1	1476	9448
1	1466	9449
1	1476	9450
1	1494	9451
1	1523	9452
1	1559	9453
1	1599	9454
1	1639	9455
1	1672	9456
1	1698	9457
1	1721	9458
1	1726	9459
1	1697	9480
1	1704	9481
1	1700	9482
1	1684	9483
1	1660	9484
1	1625	9485
1	1594	9486
1	1571	9487
1	1556	9488
1	1539	9489
1	1538	9490
1	1544	9491
1	1556	9492
1	1572	9493
1	1583	9494
1	1596	9495
1	1607	9496
1	1610	9497
1	1608	9498
1	1616	9499
1	1629	9500
1	1646	9501
1	1656	9502
1	1655	9503
1	1629	9504
1	1605	9505
1	1583	9506
1	1566	9507
1	1554	9508
1	1562	9509
1	1581	9510
1	1599	9511
1	1621	9512
1	1636	9513
1	1655	9514
1	1661	9515
1	1661	9516
1	1665	9517
1	1664	9518
1	1651	9519
1	1639	9520
1	1631	9521
1	1619	9522
1	1603	9523
1	1594	9524
1	1564	9525
1	1546	9526
1	1529	9527
1	1513	9528
1	1503	9529
1	1492	9530
1	1493	9531
1	1513	9532
1	1547	9533
1	1577	9534
1	1611	9535
1	1646	9536
1	1668	9537
1	1682	9538
1	1679	9539
1	1677	9540
1	1674	9541
1	1668	9542
1	1659	9543
1	1645	9544
1	1629	9545
1	1607	9546
1	1585	9547
1	1572	9548
1	1559	9549
1	1554	9550
1	1551	9551
1	1554	9552
1	1571	9553
1	1603	9554
1	1634	9555
1	1663	9556
1	1686	9557
1	1710	9558
1	1724	9559
1	1731	9560
1	1724	9561
1	1714	9562
1	1704	9563
1	1684	9564
1	1658	9565
1	1625	9566
1	1587	9567
1	1559	9568
1	1534	9569
1	1521	9570
1	1515	9571
1	1519	9572
1	1535	9573
1	1557	9574
1	1592	9575
1	1634	9576
1	1684	9577
1	1723	9578
1	1741	9579
1	1760	9580
1	1766	9581
1	1764	9582
1	1752	9583
1	1721	9584
1	1686	9585
1	1649	9586
1	1611	9587
1	1582	9588
1	1555	9589
1	1543	9590
1	1546	9591
1	1566	9592
1	1587	9593
1	1607	9594
1	1628	9595
1	1639	9596
1	1649	9597
1	1660	9598
1	1668	9599
1	1664	9600
1	1664	9601
1	1670	9602
1	1680	9603
1	1686	9604
1	1672	9605
1	1649	9606
1	1632	9607
1	1608	9608
1	1589	9609
1	1581	9610
1	1586	9611
1	1599	9612
1	1625	9613
1	1647	9614
1	1674	9615
1	1698	9616
1	1715	9617
1	1728	9618
1	1733	9619
1	1843	9640
1	1848	9641
1	1843	9642
1	1841	9643
1	1824	9644
1	1795	9645
1	1773	9646
1	1751	9647
1	1727	9648
1	1712	9649
1	1701	9650
1	1692	9651
1	1692	9652
1	1705	9653
1	1717	9654
1	1739	9655
1	1761	9656
1	1775	9657
1	1780	9658
1	1769	9659
1	1723	9620
1	1704	9621
1	1688	9622
1	1665	9623
1	1639	9624
1	1617	9625
1	1603	9626
1	1589	9627
1	1572	9628
1	1564	9629
1	1569	9630
1	1582	9631
1	1607	9632
1	1644	9633
1	1672	9634
1	1698	9635
1	1723	9636
1	1751	9637
1	1791	9638
1	1826	9639
1	1698	9680
1	1703	9681
1	1711	9682
1	1701	9683
1	1674	9684
1	1646	9685
1	1618	9686
1	1592	9687
1	1569	9688
1	1548	9689
1	1534	9690
1	1530	9691
1	1536	9692
1	1554	9693
1	1580	9694
1	1607	9695
1	1634	9696
1	1659	9697
1	1686	9698
1	1696	9699
1	1758	9660
1	1741	9661
1	1720	9662
1	1693	9663
1	1665	9664
1	1635	9665
1	1608	9666
1	1582	9667
1	1556	9668
1	1525	9669
1	1503	9670
1	1497	9671
1	1492	9672
1	1503	9673
1	1513	9674
1	1546	9675
1	1581	9676
1	1619	9677
1	1651	9678
1	1679	9679
1	1698	9700
1	1691	9701
1	1672	9702
1	1651	9703
1	1613	9704
1	1572	9705
1	1537	9706
1	1510	9707
1	1492	9708
1	1476	9709
1	1472	9710
1	1484	9711
1	1515	9712
1	1557	9713
1	1603	9714
1	1651	9715
1	1695	9716
1	1726	9717
1	1751	9718
1	1753	9719
1	1747	9720
1	1716	9721
1	1687	9722
1	1660	9723
1	1625	9724
1	1587	9725
1	1555	9726
1	1529	9727
1	1511	9728
1	1503	9729
1	1508	9730
1	1527	9731
1	1555	9732
1	1590	9733
1	1616	9734
1	1643	9735
1	1662	9736
1	1677	9737
1	1686	9738
1	1672	9739
1	1649	9740
1	1620	9741
1	1585	9742
1	1553	9743
1	1520	9744
1	1506	9745
1	1500	9746
1	1489	9747
1	1485	9748
1	1495	9749
1	1504	9750
1	1524	9751
1	1544	9752
1	1568	9753
1	1591	9754
1	1619	9755
1	1662	9756
1	1718	9757
1	1783	9758
1	1854	9759
1	1924	9760
1	1986	9761
1	2031	9762
1	2074	9763
1	2091	9764
1	2088	9765
1	2080	9766
1	2063	9767
1	2052	9768
1	2050	9769
1	2060	9770
1	2080	9771
1	2105	9772
1	2120	9773
1	2127	9774
1	2132	9775
1	2126	9776
1	2107	9777
1	2089	9778
1	2052	9779
1	1998	9780
1	1919	9781
1	1824	9782
1	1721	9783
1	1622	9784
1	1521	9785
1	1433	9786
1	1364	9787
1	1310	9788
1	1263	9789
1	1238	9790
1	1241	9791
1	1272	9792
1	1333	9793
1	1409	9794
1	1476	9795
1	1541	9796
1	1596	9797
1	1645	9798
1	1674	9799
1	1688	9800
1	1685	9801
1	1674	9802
1	1660	9803
1	1638	9804
1	1616	9805
1	1597	9806
1	1569	9807
1	1542	9808
1	1517	9809
1	1503	9810
1	1507	9811
1	1530	9812
1	1572	9813
1	1614	9814
1	1647	9815
1	1661	9816
1	1672	9817
1	1681	9818
1	1673	9819
1	1659	9820
1	1638	9821
1	1616	9822
1	1593	9823
1	1573	9824
1	1544	9825
1	1514	9826
1	1494	9827
1	1487	9828
1	1493	9829
1	1498	9830
1	1512	9831
1	1535	9832
1	1566	9833
1	1598	9834
1	1634	9835
1	1686	9836
1	1726	9837
1	1760	9838
1	1763	9839
1	1751	9840
1	1724	9841
1	1705	9842
1	1686	9843
1	1661	9844
1	1638	9845
1	1608	9846
1	1582	9847
1	1556	9848
1	1531	9849
1	1510	9850
1	1499	9851
1	1503	9852
1	1521	9853
1	1548	9854
1	1574	9855
1	1605	9856
1	1634	9857
1	1664	9858
1	1698	9859
1	1725	9860
1	1744	9861
1	1756	9862
1	1753	9863
1	1734	9864
1	1713	9865
1	1689	9866
1	1660	9867
1	1637	9868
1	1625	9869
1	1608	9870
1	1593	9871
1	1581	9872
1	1581	9873
1	1593	9874
1	1616	9875
1	1647	9876
1	1681	9877
1	1708	9878
1	1719	9879
1	1724	9880
1	1718	9881
1	1711	9882
1	1698	9883
1	1675	9884
1	1652	9885
1	1634	9886
1	1619	9887
1	1606	9888
1	1600	9889
1	1607	9890
1	1633	9891
1	1660	9892
1	1687	9893
1	1694	9894
1	1696	9895
1	1700	9896
1	1710	9897
1	1716	9898
1	1713	9899
1	1703	9900
1	1687	9901
1	1671	9902
1	1655	9903
1	1647	9904
1	1644	9905
1	1637	9906
1	1634	9907
1	1635	9908
1	1639	9909
1	1652	9910
1	1665	9911
1	1686	9912
1	1713	9913
1	1729	9914
1	1743	9915
1	1751	9916
1	1754	9917
1	1760	9918
1	1769	9919
1	1772	9920
1	1769	9921
1	1764	9922
1	1753	9923
1	1743	9924
1	1733	9925
1	1717	9926
1	1698	9927
1	1679	9928
1	1671	9929
1	1678	9930
1	1693	9931
1	1715	9932
1	1751	9933
1	1787	9934
1	1825	9935
1	1860	9936
1	1886	9937
1	1895	9938
1	1884	9939
1	2017	9980
1	2012	9981
1	1999	9982
1	1978	9983
1	1953	9984
1	1937	9985
1	1922	9986
1	1904	9987
1	1893	9988
1	1874	9989
1	1873	9990
1	1872	9991
1	1873	9992
1	1877	9993
1	1884	9994
1	1895	9995
1	1903	9996
1	1913	9997
1	1919	9998
1	1909	9999
1	2044	9960
1	2034	9961
1	2016	9962
1	1983	9963
1	1934	9964
1	1896	9965
1	1867	9966
1	1836	9967
1	1808	9968
1	1785	9969
1	1783	9970
1	1791	9971
1	1816	9972
1	1842	9973
1	1869	9974
1	1899	9975
1	1932	9976
1	1967	9977
1	1999	9978
1	2015	9979
1	1869	9940
1	1841	9941
1	1803	9942
1	1764	9943
1	1738	9944
1	1710	9945
1	1682	9946
1	1652	9947
1	1625	9948
1	1607	9949
1	1612	9950
1	1646	9951
1	1701	9952
1	1764	9953
1	1833	9954
1	1895	9955
1	1947	9956
1	1986	9957
1	2025	9958
1	2044	9959
1	1900	10000
1	1891	10001
1	1871	10002
1	1859	10003
1	1844	10004
1	1834	10005
1	1832	10006
1	1834	10007
1	1833	10008
1	1837	10009
1	1841	10010
1	1843	10011
1	1842	10012
1	1845	10013
1	1843	10014
1	1853	10015
1	1868	10016
1	1881	10017
1	1893	10018
1	1883	10019
1	1869	10020
1	1845	10021
1	1836	10022
1	1826	10023
1	1796	10024
1	1775	10025
1	1751	10026
1	1712	10027
1	1672	10028
1	1633	10029
1	1608	10030
1	1605	10031
1	1616	10032
1	1642	10033
1	1671	10034
1	1697	10035
1	1712	10036
1	1719	10037
1	1734	10038
1	1747	10039
1	1746	10060
1	1747	10061
1	1731	10062
1	1713	10063
1	1686	10064
1	1651	10065
1	1615	10066
1	1571	10067
1	1532	10068
1	1503	10069
1	1502	10070
1	1513	10071
1	1542	10072
1	1581	10073
1	1617	10074
1	1655	10075
1	1688	10076
1	1721	10077
1	1751	10078
1	1753	10079
1	1754	10040
1	1750	10041
1	1726	10042
1	1695	10043
1	1660	10044
1	1634	10045
1	1611	10046
1	1595	10047
1	1581	10048
1	1581	10049
1	1581	10050
1	1586	10051
1	1593	10052
1	1598	10053
1	1609	10054
1	1633	10055
1	1659	10056
1	1686	10057
1	1718	10058
1	1736	10059
1	1747	10080
1	1733	10081
1	1711	10082
1	1680	10083
1	1645	10084
1	1619	10085
1	1608	10086
1	1607	10087
1	1616	10088
1	1618	10089
1	1626	10090
1	1633	10091
1	1631	10092
