#Date:= 2024-10-08T15:58:12.324306
#Sampling Rate(Hz):= 1000
#Labels:= LOD	ECG	TS
1	3130	20
1	3130	21
1	3130	22
1	3130	23
1	3130	24
1	3130	25
1	3130	26
1	3130	27
1	3130	28
1	3130	29
1	3130	30
1	3130	31
1	3130	32
1	3130	33
1	3130	34
1	3130	35
1	3130	36
1	3130	37
1	3130	38
1	3130	39
1	3130	40
1	3130	41
1	3130	42
1	3130	43
1	3130	44
1	3130	45
1	3130	46
1	3130	47
1	3130	48
1	3130	49
1	3130	50
1	3130	51
1	3130	52
1	3130	53
1	3130	54
1	3130	55
1	3130	56
1	3130	57
1	3130	58
1	3130	59
1	3130	60
1	3130	61
1	3130	62
1	3130	63
1	3130	64
1	3130	65
1	3130	66
1	3130	67
1	3130	68
1	3130	69
1	3130	70
1	3130	71
1	3130	72
1	3130	73
1	3130	74
1	3130	75
1	3130	76
1	3130	77
1	3130	78
1	3130	79
1	3130	80
1	3130	81
1	3130	82
1	3130	83
1	3130	84
1	3130	85
1	3130	86
1	3130	87
1	3130	88
1	3130	89
1	3130	90
1	3130	91
1	3130	92
1	3130	93
1	3130	94
1	3130	95
1	3130	96
1	3130	97
1	3130	98
1	3130	99
1	3130	100
1	3130	101
1	3130	102
1	3130	103
1	3130	104
1	3130	105
1	3130	106
1	3130	107
1	3130	108
1	3130	109
1	3130	110
1	3130	111
1	3130	112
1	3130	113
1	3130	114
1	3130	115
1	3130	116
1	3130	117
1	3130	118
1	3130	119
1	3130	140
1	3130	141
1	3130	142
1	3130	143
1	3130	144
1	3130	145
1	3130	146
1	3130	147
1	3130	148
1	3130	149
1	3130	150
1	3130	151
1	3130	152
1	3130	153
1	3130	154
1	3130	155
1	3130	156
1	3130	157
1	3130	158
1	3130	159
1	3130	120
1	3130	121
1	3130	122
1	3130	123
1	3130	124
1	3130	125
1	3130	126
1	3130	127
1	3130	128
1	3130	129
1	3130	130
1	3130	131
1	3130	132
1	3130	133
1	3130	134
1	3130	135
1	3130	136
1	3130	137
1	3130	138
1	3130	139
1	3130	160
1	3130	161
1	3130	162
1	3130	163
1	3130	164
1	3130	165
1	3130	166
1	3130	167
1	3130	168
1	3130	169
1	3130	170
1	3130	171
1	3130	172
1	3130	173
1	3130	174
1	3130	175
1	3130	176
1	3130	177
1	3130	178
1	3130	179
1	3130	200
1	3130	201
1	3130	202
1	3130	203
1	3130	204
1	3130	205
1	3130	206
1	3130	207
1	3130	208
1	3130	209
1	3130	210
1	3130	211
1	3130	212
1	3130	213
1	3130	214
1	3130	215
1	3130	216
1	3130	217
1	3130	218
1	3130	219
1	3130	200
1	3130	201
1	3130	202
1	3130	203
1	3130	204
1	3130	205
1	3130	206
1	3130	207
1	3130	208
1	3130	209
1	3130	210
1	3130	211
1	3130	212
1	3130	213
1	3130	214
1	3130	215
1	3130	216
1	3130	217
1	3130	218
1	3130	219
1	3130	220
1	3130	221
1	3130	222
1	3130	223
1	3130	224
1	3130	225
1	3130	226
1	3130	227
1	3130	228
1	3130	229
1	3130	230
1	3130	231
1	3130	232
1	3130	233
1	3130	234
1	3130	235
1	3130	236
1	3130	237
1	3130	238
1	3130	239
1	3130	260
1	3130	261
1	3130	262
1	3130	263
1	3130	264
1	3130	265
1	3130	266
1	3130	267
1	3130	268
1	3130	269
1	3130	270
1	3130	271
1	3130	272
1	3130	273
1	3130	274
1	3130	275
1	3130	276
1	3130	277
1	3130	278
1	3130	279
1	3130	300
1	3130	301
1	3130	302
1	3130	303
1	3130	304
1	3130	305
1	3130	306
1	3130	307
1	3130	308
1	3130	309
1	3130	310
1	3130	311
1	3130	312
1	3130	313
1	3130	314
1	3130	315
1	3130	316
1	3130	317
1	3130	318
1	3130	319
1	3130	240
1	3130	241
1	3130	242
1	3130	243
1	3130	244
1	3130	245
1	3130	246
1	3130	247
1	3130	248
1	3130	249
1	3130	250
1	3130	251
1	3130	252
1	3130	253
1	3130	254
1	3130	255
1	3130	256
1	3130	257
1	3130	258
1	3130	259
1	3130	300
1	3130	301
1	3130	302
1	3130	303
1	3130	304
1	3130	305
1	3130	306
1	3130	307
1	3130	308
1	3130	309
1	3130	310
1	3130	311
1	3130	312
1	3130	313
1	3130	314
1	3130	315
1	3130	316
1	3130	317
1	3130	318
1	3130	319
1	3130	320
1	3130	321
1	3130	322
1	3130	323
1	3130	324
1	3130	325
1	3130	326
1	3130	327
1	3130	328
1	3130	329
1	3130	330
1	3130	331
1	3130	332
1	3130	333
1	3130	334
1	3130	335
1	3130	336
1	3130	337
1	3130	338
1	3130	339
1	3130	340
1	3130	341
1	3130	342
1	3130	343
1	3130	344
1	3130	345
1	3130	346
1	3130	347
1	3130	348
1	3130	349
1	3130	350
1	3130	351
1	3130	352
1	3130	353
1	3130	354
1	3130	355
1	3130	356
1	3130	357
1	3130	358
1	3130	359
1	3130	360
1	3130	361
1	3130	362
1	3130	363
1	3130	364
1	3130	365
1	3130	366
1	3130	367
1	3130	368
1	3130	369
1	3130	370
1	3130	371
1	3130	372
1	3130	373
1	3130	374
1	3130	375
1	3130	376
1	3130	377
1	3130	378
1	3130	379
1	3130	380
1	3130	381
1	3130	382
1	3130	383
1	3130	384
1	3130	385
1	3130	386
1	3130	387
1	3130	388
1	3130	389
1	3130	390
1	3130	391
1	3130	392
1	3130	393
1	3130	394
1	3130	395
1	3130	396
1	3130	397
1	3130	398
1	3130	399
1	3130	400
1	3130	401
1	3130	402
1	3130	403
1	3130	404
1	3130	405
1	3130	406
1	3130	407
1	3130	408
1	3130	409
1	3130	410
1	3130	411
1	3130	412
1	3130	413
1	3130	414
1	3130	415
1	3130	416
1	3130	417
1	3130	418
1	3130	419
1	3130	440
1	3130	441
1	3130	442
1	3130	443
1	3130	444
1	3130	445
1	3130	446
1	3130	447
1	3130	448
1	3130	449
1	3130	450
1	3130	451
1	3130	452
1	3130	453
1	3130	454
1	3130	455
1	3130	456
1	3130	457
1	3130	458
1	3130	459
1	3130	420
1	3130	421
1	3130	422
1	3130	423
1	3130	424
1	3130	425
1	3130	426
1	3130	427
1	3130	428
1	3130	429
1	3130	430
1	3130	431
1	3130	432
1	3130	433
1	3130	434
1	3130	435
1	3130	436
1	3130	437
1	3130	438
1	3130	439
1	3130	460
1	3130	461
1	3130	462
1	3130	463
1	3130	464
1	3130	465
1	3130	466
1	3130	467
1	3130	468
1	3130	469
1	3130	470
1	3130	471
1	3130	472
1	3130	473
1	3130	474
1	3130	475
1	3130	476
1	3130	477
1	3130	478
1	3130	479
1	3130	480
1	3130	481
1	3130	482
1	3130	483
1	3130	484
1	3130	485
1	3130	486
1	3130	487
1	3130	488
1	3130	489
1	3130	490
1	3130	491
1	3130	492
1	3130	493
1	3130	494
1	3130	495
1	3130	496
1	3130	497
1	3130	498
1	3130	499
1	3130	500
1	3130	501
1	3130	502
1	3130	503
1	3130	504
1	3130	505
1	3130	506
1	3130	507
1	3130	508
1	3130	509
1	3130	510
1	3130	511
1	3130	512
1	3130	513
1	3130	514
1	3130	515
1	3130	516
1	3130	517
1	3130	518
1	3130	519
1	3130	520
1	3130	521
1	3130	522
1	3130	523
1	3130	524
1	3130	525
1	3130	526
1	3130	527
1	3130	528
1	3130	529
1	3130	530
1	3130	531
1	3130	532
1	3130	533
1	3130	534
1	3130	535
1	3130	536
1	3130	537
1	3130	538
1	3130	539
1	3130	540
1	3130	541
1	3130	542
1	3130	543
1	3130	544
1	3130	545
1	3130	546
1	3130	547
1	3130	548
1	3130	549
1	3130	550
1	3130	551
1	3130	552
1	3130	553
1	3130	554
1	3130	555
1	3130	556
1	3130	557
1	3130	558
1	3130	559
1	3130	560
1	3130	561
1	3130	562
1	3130	563
1	3130	564
1	3130	565
1	3130	566
1	3130	567
1	3130	568
1	3130	569
1	3130	570
1	3130	571
1	3130	572
1	3130	573
1	3130	574
1	3130	575
1	3130	576
1	3130	577
1	3130	578
1	3130	579
1	3130	600
1	3130	601
1	3130	602
1	3130	603
1	3130	604
1	3130	605
1	3130	606
1	3130	607
1	3130	608
1	3130	609
1	3130	610
1	3130	611
1	3130	612
1	3130	613
1	3130	614
1	3130	615
1	3130	616
1	3130	617
1	3130	618
1	3130	619
1	3130	600
1	3130	601
1	3130	602
1	3130	603
1	3130	604
1	3130	605
1	3130	606
1	3130	607
1	3130	608
1	3130	609
1	3130	610
1	3130	611
1	3130	612
1	3130	613
1	3130	614
1	3130	615
1	3130	616
1	3130	617
1	3130	618
1	3130	619
1	3130	620
1	3130	621
1	3130	622
1	3130	623
1	3130	624
1	3130	625
1	3130	626
1	3130	627
1	3130	628
1	3130	629
1	3130	630
1	3130	631
1	3130	632
1	3130	633
1	3130	634
1	3130	635
1	3130	636
1	3130	637
1	3130	638
1	3130	639
1	3130	640
1	3130	641
1	3130	642
1	3130	643
1	3130	644
1	3130	645
1	3130	646
1	3130	647
1	3130	648
1	3130	649
1	3130	650
1	3130	651
1	3130	652
1	3130	653
1	3130	654
1	3130	655
1	3130	656
1	3130	657
1	3130	658
1	3130	659
1	3130	660
1	3130	661
1	3130	662
1	3130	663
1	3130	664
1	3130	665
1	3130	666
1	3130	667
1	3130	668
1	3130	669
1	3130	670
1	3130	671
1	3130	672
1	3130	673
1	3130	674
1	3130	675
1	3130	676
1	3130	677
1	3130	678
1	3130	679
1	3130	680
1	3130	681
1	3130	682
1	3130	683
1	3130	684
1	3130	685
1	3130	686
1	3130	687
1	3130	688
1	3130	689
1	3130	690
1	3130	691
1	3130	692
1	3130	693
1	3130	694
1	3130	695
1	3130	696
1	3130	697
1	3130	698
1	3130	699
1	3130	700
1	3130	701
1	3130	702
1	3130	703
1	3130	704
1	3130	705
1	3130	706
1	3130	707
1	3130	708
1	3130	709
1	3130	710
1	3130	711
1	3130	712
1	3130	713
1	3130	714
1	3130	715
1	3130	716
1	3130	717
1	3130	718
1	3130	719
1	3130	720
1	3130	721
1	3130	722
1	3130	723
1	3130	724
1	3130	725
1	3130	726
1	3130	727
1	3130	728
1	3130	729
1	3130	730
1	3130	731
1	3130	732
1	3130	733
1	3130	734
1	3130	735
1	3130	736
1	3130	737
1	3130	738
1	3130	739
1	3130	740
1	3130	741
1	3130	742
1	3130	743
1	3130	744
1	3130	745
1	3130	746
1	3130	747
1	3130	748
1	3130	749
1	3130	750
1	3130	751
1	3130	752
1	3130	753
1	3130	754
1	3130	755
1	3130	756
1	3130	757
1	3130	758
1	3130	759
1	3130	760
1	3130	761
1	3130	762
1	3130	763
1	3130	764
1	3130	765
1	3130	766
1	3130	767
1	3130	768
1	3130	769
1	3130	770
1	3130	771
1	3130	772
1	3130	773
1	3130	774
1	3130	775
1	3130	776
1	3130	777
1	3130	778
1	3130	779
1	3124	780
1	3118	781
1	3120	782
1	3124	783
1	3130	784
1	3130	785
1	3130	786
1	3130	787
1	3130	788
1	3130	789
1	3130	790
1	3130	791
1	3130	792
1	3130	793
1	3130	794
1	3130	795
1	3130	796
1	3130	797
1	3130	798
1	3124	799
1	3102	800
1	3078	801
1	3048	802
1	3021	803
1	2990	804
1	2968	805
1	2946	806
1	2926	807
1	2902	808
1	2885	809
1	2875	810
1	2866	811
1	2860	812
1	2860	813
1	2861	814
1	2863	815
1	2871	816
1	2883	817
1	2904	818
1	2924	819
1	2953	820
1	2988	821
1	3034	822
1	3097	823
1	3130	824
1	3130	825
1	3130	826
1	3130	827
1	3130	828
1	3130	829
1	3130	830
1	3130	831
1	3130	832
1	3130	833
1	3130	834
1	3130	835
1	3130	836
1	3130	837
1	3130	838
1	3130	839
1	3130	840
1	3130	841
1	3130	842
1	3130	843
1	3130	844
1	3130	845
1	3130	846
1	3130	847
1	3130	848
1	3130	849
1	3130	850
1	3130	851
1	3130	852
1	3130	853
1	3130	854
1	3130	855
1	3130	856
1	3130	857
1	3130	858
1	3130	859
1	2710	880
1	2699	881
1	2690	882
1	2687	883
1	2685	884
1	2688	885
1	2694	886
1	2695	887
1	2690	888
1	2691	889
1	2692	890
1	2690	891
1	2683	892
1	2679	893
1	2668	894
1	2657	895
1	2644	896
1	2628	897
1	2611	898
1	2596	899
1	2591	900
1	2591	901
1	2599	902
1	2602	903
1	2622	904
1	2642	905
1	2666	906
1	2697	907
1	2735	908
1	2764	909
1	2786	910
1	2801	911
1	2808	912
1	2801	913
1	2782	914
1	2764	915
1	2740	916
1	2716	917
1	2685	918
1	2656	919
1	3130	860
1	3130	861
1	3130	862
1	3130	863
1	3130	864
1	3130	865
1	3130	866
1	3130	867
1	3130	868
1	3130	869
1	3130	870
1	3097	871
1	3026	872
1	2961	873
1	2901	874
1	2854	875
1	2812	876
1	2773	877
1	2746	878
1	2725	879
1	2629	920
1	2602	921
1	2584	922
1	2582	923
1	2581	924
1	2584	925
1	2587	926
1	2581	927
1	2566	928
1	2558	929
1	2552	930
1	2539	931
1	2527	932
1	2515	933
1	2500	934
1	2486	935
1	2473	936
1	2466	937
1	2464	938
1	2469	939
1	2474	940
1	2494	941
1	2501	942
1	2513	943
1	2521	944
1	2535	945
1	2545	946
1	2556	947
1	2560	948
1	2571	949
1	2577	950
1	2580	951
1	2577	952
1	2585	953
1	2590	954
1	2595	955
1	2599	956
1	2595	957
1	2585	958
1	2573	959
1	2563	960
1	2554	961
1	2542	962
1	2525	963
1	2515	964
1	2503	965
1	2488	966
1	2472	967
1	2469	968
1	2459	969
1	2456	970
1	2456	971
1	2458	972
1	2462	973
1	2471	974
1	2483	975
1	2495	976
1	2499	977
1	2496	978
1	2500	979
1	2503	980
1	2509	981
1	2514	982
1	2523	983
1	2526	984
1	2529	985
1	2529	986
1	2533	987
1	2538	988
1	2546	989
1	2557	990
1	2563	991
1	2563	992
1	2554	993
1	2543	994
1	2533	995
1	2523	996
1	2509	997
1	2502	998
1	2492	999
1	2480	1000
1	2467	1001
1	2457	1002
1	2454	1003
1	2461	1004
1	2477	1005
1	2496	1006
1	2512	1007
1	2519	1008
1	2534	1009
1	2545	1010
1	2555	1011
1	2555	1012
1	2555	1013
1	2535	1014
1	2515	1015
1	2493	1016
1	2465	1017
1	2438	1018
1	2415	1019
1	2395	1020
1	2391	1021
1	2389	1022
1	2382	1023
1	2392	1024
1	2401	1025
1	2411	1026
1	2418	1027
1	2431	1028
1	2434	1029
1	2420	1030
1	2419	1031
1	2403	1032
1	2380	1033
1	2363	1034
1	2343	1035
1	2331	1036
1	2317	1037
1	2300	1038
1	2289	1039
1	2288	1040
1	2287	1041
1	2284	1042
1	2286	1043
1	2284	1044
1	2288	1045
1	2302	1046
1	2310	1047
1	2320	1048
1	2333	1049
1	2340	1050
1	2339	1051
1	2333	1052
1	2318	1053
1	2309	1054
1	2296	1055
1	2284	1056
1	2273	1057
1	2264	1058
1	2248	1059
1	2155	1080
1	2154	1081
1	2152	1082
1	2135	1083
1	2131	1084
1	2123	1085
1	2117	1086
1	2106	1087
1	2104	1088
1	2093	1089
1	2079	1090
1	2064	1091
1	2045	1092
1	2028	1093
1	2017	1094
1	2011	1095
1	2002	1096
1	1998	1097
1	1983	1098
1	1977	1099
1	2233	1060
1	2222	1061
1	2219	1062
1	2218	1063
1	2212	1064
1	2205	1065
1	2186	1066
1	2173	1067
1	2158	1068
1	2159	1069
1	2162	1070
1	2160	1071
1	2157	1072
1	2159	1073
1	2157	1074
1	2157	1075
1	2156	1076
1	2155	1077
1	2154	1078
1	2156	1079
1	1979	1100
1	1990	1101
1	2000	1102
1	2017	1103
1	2026	1104
1	2034	1105
1	2040	1106
1	2052	1107
1	2057	1108
1	2064	1109
1	2062	1110
1	2053	1111
1	2039	1112
1	2017	1113
1	2001	1114
1	1989	1115
1	1978	1116
1	1972	1117
1	1971	1118
1	1963	1119
1	1963	1120
1	1971	1121
1	1983	1122
1	1995	1123
1	2000	1124
1	2002	1125
1	2002	1126
1	2002	1127
1	2003	1128
1	2007	1129
1	2006	1130
1	2000	1131
1	1987	1132
1	1976	1133
1	1967	1134
1	1961	1135
1	1962	1136
1	1953	1137
1	1944	1138
1	1929	1139
1	1918	1140
1	1906	1141
1	1895	1142
1	1882	1143
1	1875	1144
1	1875	1145
1	1877	1146
1	1882	1147
1	1898	1148
1	1909	1149
1	1922	1150
1	1931	1151
1	1935	1152
1	1940	1153
1	1940	1154
1	1942	1155
1	1940	1156
1	1936	1157
1	1921	1158
1	1908	1159
1	1896	1160
1	1887	1161
1	1873	1162
1	1873	1163
1	1871	1164
1	1877	1165
1	1883	1166
1	1893	1167
1	1900	1168
1	1906	1169
1	1908	1170
1	1904	1171
1	1897	1172
1	1881	1173
1	1872	1174
1	1868	1175
1	1867	1176
1	1872	1177
1	1890	1178
1	1899	1179
1	1910	1180
1	1921	1181
1	1922	1182
1	1922	1183
1	1913	1184
1	1906	1185
1	1900	1186
1	1901	1187
1	1895	1188
1	1891	1189
1	1881	1190
1	1870	1191
1	1859	1192
1	1854	1193
1	1843	1194
1	1835	1195
1	1828	1196
1	1818	1197
1	1812	1198
1	1813	1199
1	1818	1200
1	1835	1201
1	1843	1202
1	1837	1203
1	1834	1204
1	1832	1205
1	1832	1206
1	1832	1207
1	1841	1208
1	1839	1209
1	1835	1210
1	1832	1211
1	1832	1212
1	1836	1213
1	1842	1214
1	1844	1215
1	1851	1216
1	1854	1217
1	1849	1218
1	1846	1219
1	1850	1220
1	1850	1221
1	1856	1222
1	1863	1223
1	1862	1224
1	1862	1225
1	1871	1226
1	1871	1227
1	1874	1228
1	1870	1229
1	1863	1230
1	1856	1231
1	1854	1232
1	1847	1233
1	1845	1234
1	1841	1235
1	1832	1236
1	1818	1237
1	1801	1238
1	1778	1239
1	1845	1260
1	1847	1261
1	1847	1262
1	1841	1263
1	1841	1264
1	1845	1265
1	1852	1266
1	1856	1267
1	1865	1268
1	1869	1269
1	1868	1270
1	1860	1271
1	1849	1272
1	1836	1273
1	1814	1274
1	1782	1275
1	1755	1276
1	1731	1277
1	1706	1278
1	1686	1279
1	1754	1240
1	1747	1241
1	1746	1242
1	1751	1243
1	1766	1244
1	1787	1245
1	1809	1246
1	1826	1247
1	1839	1248
1	1855	1249
1	1867	1250
1	1870	1251
1	1873	1252
1	1880	1253
1	1873	1254
1	1866	1255
1	1857	1256
1	1849	1257
1	1845	1258
1	1843	1259
1	1679	1300
1	1674	1301
1	1671	1302
1	1668	1303
1	1665	1304
1	1664	1305
1	1670	1306
1	1674	1307
1	1668	1308
1	1662	1309
1	1660	1310
1	1657	1311
1	1654	1312
1	1660	1313
1	1661	1314
1	1670	1315
1	1678	1316
1	1678	1317
1	1679	1318
1	1675	1319
1	1675	1280
1	1671	1281
1	1679	1282
1	1695	1283
1	1712	1284
1	1732	1285
1	1750	1286
1	1775	1287
1	1798	1288
1	1825	1289
1	1843	1290
1	1845	1291
1	1842	1292
1	1822	1293
1	1798	1294
1	1769	1295
1	1741	1296
1	1716	1297
1	1705	1298
1	1689	1299
1	1670	1320
1	1664	1321
1	1652	1322
1	1631	1323
1	1610	1324
1	1595	1325
1	1581	1326
1	1574	1327
1	1577	1328
1	1573	1329
1	1562	1330
1	1566	1331
1	1569	1332
1	1572	1333
1	1581	1334
1	1593	1335
1	1603	1336
1	1611	1337
1	1618	1338
1	1626	1339
1	1637	1340
1	1647	1341
1	1652	1342
1	1658	1343
1	1657	1344
1	1652	1345
1	1651	1346
1	1639	1347
1	1631	1348
1	1625	1349
1	1625	1350
1	1623	1351
1	1621	1352
1	1609	1353
1	1602	1354
1	1590	1355
1	1580	1356
1	1569	1357
1	1560	1358
1	1548	1359
1	1533	1360
1	1524	1361
1	1516	1362
1	1515	1363
1	1517	1364
1	1527	1365
1	1539	1366
1	1556	1367
1	1566	1368
1	1571	1369
1	1560	1370
1	1535	1371
1	1503	1372
1	1476	1373
1	1451	1374
1	1431	1375
1	1414	1376
1	1398	1377
1	1373	1378
1	1355	1379
1	1338	1380
1	1331	1381
1	1328	1382
1	1324	1383
1	1328	1384
1	1340	1385
1	1358	1386
1	1384	1387
1	1425	1388
1	1455	1389
1	1487	1390
1	1512	1391
1	1537	1392
1	1558	1393
1	1580	1394
1	1604	1395
1	1634	1396
1	1665	1397
1	1700	1398
1	1746	1399
1	1807	1400
1	1869	1401
1	1934	1402
1	2003	1403
1	2066	1404
1	2132	1405
1	2205	1406
1	2279	1407
1	2355	1408
1	2428	1409
1	2496	1410
1	2549	1411
1	2596	1412
1	2631	1413
1	2657	1414
1	2673	1415
1	2675	1416
1	2662	1417
1	2643	1418
1	2597	1419
1	2540	1420
1	2476	1421
1	2392	1422
1	2300	1423
1	2182	1424
1	2118	1425
1	2038	1426
1	1968	1427
1	1909	1428
1	1864	1429
1	1823	1430
1	1783	1431
1	1750	1432
1	1724	1433
1	1702	1434
1	1685	1435
1	1675	1436
1	1659	1437
1	1635	1438
1	1608	1439
1	1582	1440
1	1557	1441
1	1539	1442
1	1517	1443
1	1499	1444
1	1481	1445
1	1466	1446
1	1458	1447
1	1451	1448
1	1446	1449
1	1439	1450
1	1437	1451
1	1437	1452
1	1439	1453
1	1440	1454
1	1441	1455
1	1438	1456
1	1429	1457
1	1415	1458
1	1405	1459
1	1398	1460
1	1391	1461
1	1382	1462
1	1395	1463
1	1405	1464
1	1422	1465
1	1429	1466
1	1438	1467
1	1449	1468
1	1458	1469
1	1463	1470
1	1463	1471
1	1460	1472
1	1452	1473
1	1446	1474
1	1439	1475
1	1431	1476
1	1427	1477
1	1430	1478
1	1433	1479
1	1445	1480
1	1463	1481
1	1482	1482
1	1498	1483
1	1503	1484
1	1502	1485
1	1491	1486
1	1477	1487
1	1453	1488
1	1430	1489
1	1411	1490
1	1398	1491
1	1384	1492
1	1384	1493
1	1384	1494
1	1384	1495
1	1391	1496
1	1384	1497
1	1382	1498
1	1373	1499
1	1373	1500
1	1372	1501
1	1373	1502
1	1377	1503
1	1392	1504
1	1402	1505
1	1417	1506
1	1429	1507
1	1447	1508
1	1454	1509
1	1458	1510
1	1454	1511
1	1450	1512
1	1445	1513
1	1438	1514
1	1435	1515
1	1428	1516
1	1424	1517
1	1410	1518
1	1406	1519
1	1407	1520
1	1413	1521
1	1422	1522
1	1428	1523
1	1428	1524
1	1426	1525
1	1431	1526
1	1424	1527
1	1418	1528
1	1409	1529
1	1400	1530
1	1398	1531
1	1397	1532
1	1400	1533
1	1410	1534
1	1416	1535
1	1422	1536
1	1423	1537
1	1430	1538
1	1436	1539
1	1380	1560
1	1359	1561
1	1347	1562
1	1341	1563
1	1346	1564
1	1353	1565
1	1362	1566
1	1372	1567
1	1396	1568
1	1412	1569
1	1428	1570
1	1448	1571
1	1468	1572
1	1482	1573
1	1494	1574
1	1500	1575
1	1499	1576
1	1490	1577
1	1481	1578
1	1476	1579
1	1441	1540
1	1453	1541
1	1459	1542
1	1464	1543
1	1468	1544
1	1471	1545
1	1469	1546
1	1472	1547
1	1467	1548
1	1476	1549
1	1487	1550
1	1497	1551
1	1508	1552
1	1512	1553
1	1507	1554
1	1503	1555
1	1490	1556
1	1474	1557
1	1445	1558
1	1413	1559
1	1450	1600
1	1467	1601
1	1479	1602
1	1487	1603
1	1490	1604
1	1495	1605
1	1500	1606
1	1504	1607
1	1505	1608
1	1511	1609
1	1507	1610
1	1499	1611
1	1479	1612
1	1463	1613
1	1441	1614
1	1420	1615
1	1400	1616
1	1391	1617
1	1379	1618
1	1379	1619
1	1476	1580
1	1477	1581
1	1477	1582
1	1482	1583
1	1481	1584
1	1476	1585
1	1471	1586
1	1460	1587
1	1450	1588
1	1445	1589
1	1437	1590
1	1437	1591
1	1436	1592
1	1427	1593
1	1422	1594
1	1413	1595
1	1409	1596
1	1410	1597
1	1422	1598
1	1434	1599
1	1382	1620
1	1391	1621
1	1392	1622
1	1379	1623
1	1371	1624
1	1363	1625
1	1357	1626
1	1365	1627
1	1371	1628
1	1368	1629
1	1370	1630
1	1362	1631
1	1354	1632
1	1346	1633
1	1341	1634
1	1340	1635
1	1342	1636
1	1347	1637
1	1359	1638
1	1373	1639
1	1392	1640
1	1400	1641
1	1405	1642
1	1410	1643
1	1407	1644
1	1406	1645
1	1409	1646
1	1407	1647
1	1401	1648
1	1398	1649
1	1392	1650
1	1377	1651
1	1372	1652
1	1356	1653
1	1346	1654
1	1332	1655
1	1319	1656
1	1307	1657
1	1297	1658
1	1289	1659
1	1284	1660
1	1286	1661
1	1293	1662
1	1307	1663
1	1322	1664
1	1343	1665
1	1361	1666
1	1379	1667
1	1395	1668
1	1404	1669
1	1410	1670
1	1412	1671
1	1410	1672
1	1404	1673
1	1394	1674
1	1375	1675
1	1364	1676
1	1351	1677
1	1344	1678
1	1337	1679
1	1328	1680
1	1320	1681
1	1319	1682
1	1314	1683
1	1307	1684
1	1299	1685
1	1292	1686
1	1292	1687
1	1281	1688
1	1276	1689
1	1267	1690
1	1254	1691
1	1241	1692
1	1230	1693
1	1226	1694
1	1222	1695
1	1223	1696
1	1228	1697
1	1238	1698
1	1266	1699
1	1298	1700
1	1332	1701
1	1366	1702
1	1392	1703
1	1407	1704
1	1416	1705
1	1420	1706
1	1423	1707
1	1424	1708
1	1424	1709
1	1426	1710
1	1424	1711
1	1415	1712
1	1398	1713
1	1379	1714
1	1359	1715
1	1331	1716
1	1302	1717
1	1272	1718
1	1251	1719
1	1233	1720
1	1223	1721
1	1220	1722
1	1225	1723
1	1232	1724
1	1241	1725
1	1263	1726
1	1288	1727
1	1314	1728
1	1337	1729
1	1356	1730
1	1369	1731
1	1372	1732
1	1379	1733
1	1381	1734
1	1383	1735
1	1384	1736
1	1376	1737
1	1369	1738
1	1359	1739
1	1346	1740
1	1337	1741
1	1328	1742
1	1319	1743
1	1319	1744
1	1328	1745
1	1340	1746
1	1350	1747
1	1368	1748
1	1373	1749
1	1383	1750
1	1392	1751
1	1384	1752
1	1377	1753
1	1368	1754
1	1359	1755
1	1350	1756
1	1343	1757
1	1324	1758
1	1312	1759
1	1372	1780
1	1376	1781
1	1381	1782
1	1382	1783
1	1384	1784
1	1396	1785
1	1398	1786
1	1400	1787
1	1398	1788
1	1395	1789
1	1384	1790
1	1372	1791
1	1368	1792
1	1358	1793
1	1346	1794
1	1346	1795
1	1341	1796
1	1332	1797
1	1328	1798
1	1328	1799
1	1301	1760
1	1293	1761
1	1291	1762
1	1292	1763
1	1293	1764
1	1294	1765
1	1302	1766
1	1312	1767
1	1327	1768
1	1341	1769
1	1353	1770
1	1370	1771
1	1373	1772
1	1372	1773
1	1368	1774
1	1363	1775
1	1362	1776
1	1367	1777
1	1369	1778
1	1371	1779
1	1338	1800
1	1357	1801
1	1379	1802
1	1399	1803
1	1418	1804
1	1425	1805
1	1424	1806
1	1422	1807
1	1406	1808
1	1391	1809
1	1372	1810
1	1355	1811
1	1337	1812
1	1324	1813
1	1318	1814
1	1311	1815
1	1306	1816
1	1302	1817
1	1302	1818
1	1318	1819
1	1337	1820
1	1356	1821
1	1377	1822
1	1397	1823
1	1405	1824
1	1410	1825
1	1427	1826
1	1438	1827
1	1454	1828
1	1467	1829
1	1471	1830
1	1464	1831
1	1449	1832
1	1425	1833
1	1399	1834
1	1372	1835
1	1356	1836
1	1345	1837
1	1346	1838
1	1350	1839
1	1357	1840
1	1369	1841
1	1373	1842
1	1380	1843
1	1384	1844
1	1394	1845
1	1398	1846
1	1405	1847
1	1400	1848
1	1404	1849
1	1415	1850
1	1425	1851
1	1432	1852
1	1437	1853
1	1429	1854
1	1423	1855
1	1420	1856
1	1422	1857
1	1432	1858
1	1449	1859
1	1423	1880
1	1420	1881
1	1421	1882
1	1409	1883
1	1396	1884
1	1383	1885
1	1384	1886
1	1398	1887
1	1410	1888
1	1422	1889
1	1424	1890
1	1423	1891
1	1416	1892
1	1403	1893
1	1395	1894
1	1380	1895
1	1373	1896
1	1381	1897
1	1384	1898
1	1398	1899
1	1467	1860
1	1478	1861
1	1485	1862
1	1479	1863
1	1476	1864
1	1474	1865
1	1474	1866
1	1476	1867
1	1482	1868
1	1485	1869
1	1487	1870
1	1489	1871
1	1485	1872
1	1479	1873
1	1476	1874
1	1466	1875
1	1458	1876
1	1450	1877
1	1437	1878
1	1426	1879
1	1412	1900
1	1424	1901
1	1436	1902
1	1439	1903
1	1437	1904
1	1428	1905
1	1413	1906
1	1398	1907
1	1377	1908
1	1374	1909
1	1377	1910
1	1382	1911
1	1395	1912
1	1398	1913
1	1404	1914
1	1407	1915
1	1409	1916
1	1409	1917
1	1412	1918
1	1416	1919
1	1423	1920
1	1430	1921
1	1437	1922
1	1439	1923
1	1449	1924
1	1450	1925
1	1449	1926
1	1436	1927
1	1422	1928
1	1384	1929
1	1366	1930
1	1332	1931
1	1315	1932
1	1289	1933
1	1265	1934
1	1247	1935
1	1236	1936
1	1229	1937
1	1231	1938
1	1240	1939
1	1252	1940
1	1271	1941
1	1290	1942
1	1312	1943
1	1328	1944
1	1337	1945
1	1348	1946
1	1359	1947
1	1372	1948
1	1383	1949
1	1398	1950
1	1398	1951
1	1395	1952
1	1382	1953
1	1375	1954
1	1375	1955
1	1377	1956
1	1376	1957
1	1379	1958
1	1377	1959
1	1383	1960
1	1384	1961
1	1395	1962
1	1395	1963
1	1395	1964
1	1384	1965
1	1373	1966
1	1359	1967
1	1344	1968
1	1332	1969
1	1327	1970
1	1319	1971
1	1319	1972
1	1319	1973
1	1314	1974
1	1310	1975
1	1301	1976
1	1292	1977
1	1280	1978
1	1268	1979
1	1258	1980
1	1243	1981
1	1235	1982
1	1222	1983
1	1219	1984
1	1217	1985
1	1217	1986
1	1230	1987
1	1238	1988
1	1241	1989
1	1246	1990
1	1251	1991
1	1258	1992
1	1274	1993
1	1293	1994
1	1324	1995
1	1364	1996
1	1413	1997
1	1452	1998
1	1502	1999
1	1555	2000
1	1613	2001
1	1685	2002
1	1751	2003
1	1824	2004
1	1893	2005
1	1956	2006
1	2026	2007
1	2104	2008
1	2183	2009
1	2261	2010
1	2322	2011
1	2374	2012
1	2410	2013
1	2445	2014
1	2471	2015
1	2485	2016
1	2489	2017
1	2480	2018
1	2455	2019
1	2421	2020
1	2371	2021
1	2317	2022
1	2261	2023
1	2206	2024
1	2147	2025
1	2088	2026
1	2032	2027
1	1980	2028
1	1934	2029
1	1894	2030
1	1856	2031
1	1824	2032
1	1796	2033
1	1772	2034
1	1750	2035
1	1729	2036
1	1703	2037
1	1674	2038
1	1644	2039
1	1616	2040
1	1587	2041
1	1553	2042
1	1508	2043
1	1476	2044
1	1443	2045
1	1414	2046
1	1393	2047
1	1374	2048
1	1358	2049
1	1344	2050
1	1332	2051
1	1323	2052
1	1319	2053
1	1318	2054
1	1319	2055
1	1323	2056
1	1332	2057
1	1337	2058
1	1350	2059
1	1369	2060
1	1384	2061
1	1410	2062
1	1431	2063
1	1454	2064
1	1476	2065
1	1490	2066
1	1502	2067
1	1508	2068
1	1512	2069
1	1511	2070
1	1503	2071
1	1489	2072
1	1467	2073
1	1451	2074
1	1442	2075
1	1429	2076
1	1420	2077
1	1404	2078
1	1395	2079
1	1393	2080
1	1395	2081
1	1399	2082
1	1398	2083
1	1398	2084
1	1398	2085
1	1402	2086
1	1412	2087
1	1416	2088
1	1424	2089
1	1430	2090
1	1437	2091
1	1450	2092
1	1455	2093
1	1454	2094
1	1458	2095
1	1465	2096
1	1472	2097
1	1476	2098
1	1479	2099
1	1479	2100
1	1476	2101
1	1475	2102
1	1467	2103
1	1467	2104
1	1469	2105
1	1476	2106
1	1492	2107
1	1505	2108
1	1511	2109
1	1510	2110
1	1506	2111
1	1503	2112
1	1500	2113
1	1498	2114
1	1495	2115
1	1500	2116
1	1503	2117
1	1503	2118
1	1505	2119
1	1517	2120
1	1529	2121
1	1544	2122
1	1550	2123
1	1544	2124
1	1534	2125
1	1533	2126
1	1533	2127
1	1536	2128
1	1534	2129
1	1528	2130
1	1517	2131
1	1503	2132
1	1503	2133
1	1507	2134
1	1517	2135
1	1531	2136
1	1558	2137
1	1581	2138
1	1611	2139
1	1647	2140
1	1674	2141
1	1692	2142
1	1704	2143
1	1703	2144
1	1698	2145
1	1685	2146
1	1661	2147
1	1634	2148
1	1616	2149
1	1602	2150
1	1594	2151
1	1590	2152
1	1593	2153
1	1601	2154
1	1615	2155
1	1641	2156
1	1660	2157
1	1679	2158
1	1693	2159
1	1707	2160
1	1715	2161
1	1718	2162
1	1711	2163
1	1706	2164
1	1698	2165
1	1686	2166
1	1680	2167
1	1678	2168
1	1672	2169
1	1660	2170
1	1641	2171
1	1625	2172
1	1611	2173
1	1607	2174
1	1608	2175
1	1622	2176
1	1643	2177
1	1657	2178
1	1678	2179
1	1700	2180
1	1718	2181
1	1741	2182
1	1753	2183
1	1764	2184
1	1772	2185
1	1767	2186
1	1755	2187
1	1733	2188
1	1701	2189
1	1674	2190
1	1647	2191
1	1626	2192
1	1603	2193
1	1585	2194
1	1577	2195
1	1575	2196
1	1587	2197
1	1602	2198
1	1627	2199
1	1652	2200
1	1685	2201
1	1714	2202
1	1749	2203
1	1782	2204
1	1818	2205
1	1849	2206
1	1873	2207
1	1891	2208
1	1904	2209
1	1906	2210
1	1891	2211
1	1870	2212
1	1843	2213
1	1817	2214
1	1792	2215
1	1773	2216
1	1752	2217
1	1733	2218
1	1716	2219
1	1712	2220
1	1711	2221
1	1710	2222
1	1698	2223
1	1688	2224
1	1674	2225
1	1663	2226
1	1654	2227
1	1655	2228
1	1649	2229
1	1659	2230
1	1658	2231
1	1662	2232
1	1658	2233
1	1655	2234
1	1659	2235
1	1660	2236
1	1656	2237
1	1645	2238
1	1629	2239
1	1615	2240
1	1607	2241
1	1607	2242
1	1616	2243
1	1618	2244
1	1625	2245
1	1636	2246
1	1643	2247
1	1646	2248
1	1643	2249
1	1634	2250
1	1621	2251
1	1603	2252
1	1583	2253
1	1576	2254
1	1578	2255
1	1581	2256
1	1592	2257
1	1607	2258
1	1621	2259
1	1724	2280
1	1738	2281
1	1757	2282
1	1773	2283
1	1788	2284
1	1795	2285
1	1791	2286
1	1785	2287
1	1769	2288
1	1755	2289
1	1738	2290
1	1724	2291
1	1706	2292
1	1693	2293
1	1683	2294
1	1675	2295
1	1671	2296
1	1670	2297
1	1660	2298
1	1658	2299
1	1638	2260
1	1647	2261
1	1659	2262
1	1665	2263
1	1679	2264
1	1687	2265
1	1697	2266
1	1701	2267
1	1701	2268
1	1701	2269
1	1698	2270
1	1695	2271
1	1695	2272
1	1691	2273
1	1689	2274
1	1690	2275
1	1693	2276
1	1700	2277
1	1710	2278
1	1716	2279
1	1655	2300
1	1655	2301
1	1659	2302
1	1656	2303
1	1657	2304
1	1658	2305
1	1662	2306
1	1670	2307
1	1675	2308
1	1677	2309
1	1679	2310
1	1670	2311
1	1659	2312
1	1638	2313
1	1625	2314
1	1611	2315
1	1606	2316
1	1607	2317
1	1610	2318
1	1617	2319
1	1627	2320
1	1636	2321
1	1647	2322
1	1660	2323
1	1680	2324
1	1688	2325
1	1698	2326
1	1703	2327
1	1705	2328
1	1710	2329
1	1706	2330
1	1699	2331
1	1688	2332
1	1672	2333
1	1657	2334
1	1645	2335
1	1646	2336
1	1647	2337
1	1649	2338
1	1658	2339
1	1665	2340
1	1677	2341
1	1685	2342
1	1685	2343
1	1685	2344
1	1680	2345
1	1681	2346
1	1685	2347
1	1694	2348
1	1695	2349
1	1686	2350
1	1675	2351
1	1660	2352
1	1638	2353
1	1620	2354
1	1608	2355
1	1607	2356
1	1608	2357
1	1611	2358
1	1622	2359
1	1634	2360
1	1649	2361
1	1677	2362
1	1697	2363
1	1711	2364
1	1718	2365
1	1722	2366
1	1726	2367
1	1724	2368
1	1714	2369
1	1701	2370
1	1686	2371
1	1669	2372
1	1646	2373
1	1632	2374
1	1620	2375
1	1612	2376
1	1608	2377
1	1600	2378
1	1589	2379
1	1581	2380
1	1579	2381
1	1576	2382
1	1567	2383
1	1556	2384
1	1548	2385
1	1547	2386
1	1551	2387
1	1555	2388
1	1559	2389
1	1568	2390
1	1571	2391
1	1571	2392
1	1556	2393
1	1532	2394
1	1503	2395
1	1481	2396
1	1466	2397
1	1455	2398
1	1452	2399
1	1458	2400
1	1472	2401
1	1489	2402
1	1499	2403
1	1511	2404
1	1526	2405
1	1541	2406
1	1559	2407
1	1561	2408
1	1550	2409
1	1514	2410
1	1469	2411
1	1421	2412
1	1364	2413
1	1321	2414
1	1302	2415
1	1305	2416
1	1319	2417
1	1334	2418
1	1357	2419
1	1377	2420
1	1393	2421
1	1398	2422
1	1400	2423
1	1402	2424
1	1398	2425
1	1402	2426
1	1397	2427
1	1384	2428
1	1369	2429
1	1341	2430
1	1313	2431
1	1286	2432
1	1268	2433
1	1261	2434
1	1259	2435
1	1258	2436
1	1255	2437
1	1243	2438
1	1237	2439
1	1230	2460
1	1238	2461
1	1242	2462
1	1251	2463
1	1259	2464
1	1267	2465
1	1280	2466
1	1296	2467
1	1310	2468
1	1319	2469
1	1319	2470
1	1305	2471
1	1283	2472
1	1265	2473
1	1237	2474
1	1215	2475
1	1197	2476
1	1184	2477
1	1176	2478
1	1173	2479
1	1176	2480
1	1184	2481
1	1197	2482
1	1206	2483
1	1215	2484
1	1225	2485
1	1245	2486
1	1282	2487
1	1314	2488
1	1337	2489
1	1359	2490
1	1374	2491
1	1398	2492
1	1412	2493
1	1412	2494
1	1407	2495
1	1400	2496
1	1382	2497
1	1359	2498
1	1340	2499
1	1315	2480
1	1289	2481
1	1266	2482
1	1241	2483
1	1226	2484
1	1215	2485
1	1213	2486
1	1216	2487
1	1228	2488
1	1239	2489
1	1242	2490
1	1243	2491
1	1243	2492
1	1241	2493
1	1245	2494
1	1248	2495
1	1241	2496
1	1226	2497
1	1215	2498
1	1206	2499
1	1197	2500
1	1181	2501
1	1162	2502
1	1136	2503
1	1111	2504
1	1089	2505
1	1069	2506
1	1048	2507
1	1026	2508
1	1009	2509
1	995	2510
1	977	2511
1	961	2512
1	952	2513
1	945	2514
1	945	2515
1	950	2516
1	957	2517
1	980	2518
1	1022	2519
1	1373	2540
1	1422	2541
1	1471	2542
1	1524	2543
1	1570	2544
1	1620	2545
1	1652	2546
1	1677	2547
1	1693	2548
1	1701	2549
1	1699	2550
1	1684	2551
1	1660	2552
1	1623	2553
1	1589	2554
1	1561	2555
1	1547	2556
1	1540	2557
1	1549	2558
1	1555	2559
1	1076	2520
1	1143	2521
1	1208	2522
1	1266	2523
1	1319	2524
1	1360	2525
1	1392	2526
1	1409	2527
1	1427	2528
1	1433	2529
1	1424	2530
1	1413	2531
1	1390	2532
1	1368	2533
1	1351	2534
1	1346	2535
1	1334	2536
1	1324	2537
1	1324	2538
1	1343	2539
1	1517	2600
1	1523	2601
1	1530	2602
1	1530	2603
1	1527	2604
1	1529	2605
1	1529	2606
1	1530	2607
1	1542	2608
1	1553	2609
1	1555	2610
1	1552	2611
1	1538	2612
1	1510	2613
1	1493	2614
1	1481	2615
1	1468	2616
1	1452	2617
1	1433	2618
1	1424	2619
1	1572	2560
1	1599	2561
1	1634	2562
1	1674	2563
1	1721	2564
1	1764	2565
1	1803	2566
1	1837	2567
1	1846	2568
1	1846	2569
1	1835	2570
1	1817	2571
1	1796	2572
1	1769	2573
1	1742	2574
1	1723	2575
1	1712	2576
1	1711	2577
1	1719	2578
1	1737	2579
1	1751	2580
1	1764	2581
1	1782	2582
1	1786	2583
1	1778	2584
1	1764	2585
1	1746	2586
1	1724	2587
1	1685	2588
1	1634	2589
1	1581	2590
1	1539	2591
1	1505	2592
1	1482	2593
1	1471	2594
1	1464	2595
1	1474	2596
1	1489	2597
1	1494	2598
1	1503	2599
1	1417	2620
1	1413	2621
1	1422	2622
1	1437	2623
1	1451	2624
1	1462	2625
1	1476	2626
1	1498	2627
1	1512	2628
1	1528	2629
1	1544	2630
1	1572	2631
1	1602	2632
1	1639	2633
1	1675	2634
1	1717	2635
1	1767	2636
1	1821	2637
1	1869	2638
1	1918	2639
1	1962	2640
1	2012	2641
1	2063	2642
1	2111	2643
1	2170	2644
1	2236	2645
1	2300	2646
1	2363	2647
1	2424	2648
1	2471	2649
1	2502	2650
1	2516	2651
1	2523	2652
1	2525	2653
1	2525	2654
1	2522	2655
1	2514	2656
1	2495	2657
1	2451	2658
1	2400	2659
1	2336	2660
1	2262	2661
1	2184	2662
1	2114	2663
1	2049	2664
1	1996	2665
1	1948	2666
1	1901	2667
1	1856	2668
1	1809	2669
1	1756	2670
1	1701	2671
1	1644	2672
1	1582	2673
1	1546	2674
1	1528	2675
1	1512	2676
1	1500	2677
1	1476	2678
1	1458	2679
1	1436	2680
1	1403	2681
1	1364	2682
1	1337	2683
1	1319	2684
1	1302	2685
1	1287	2686
1	1271	2687
1	1254	2688
1	1241	2689
1	1225	2690
1	1209	2691
1	1196	2692
1	1185	2693
1	1181	2694
1	1188	2695
1	1189	2696
1	1193	2697
1	1196	2698
1	1204	2699
1	1220	2700
1	1242	2701
1	1271	2702
1	1292	2703
1	1310	2704
1	1317	2705
1	1317	2706
1	1317	2707
1	1302	2708
1	1280	2709
1	1247	2710
1	1215	2711
1	1184	2712
1	1161	2713
1	1137	2714
1	1125	2715
1	1115	2716
1	1115	2717
1	1118	2718
1	1132	2719
1	1147	2720
1	1166	2721
1	1188	2722
1	1206	2723
1	1225	2724
1	1233	2725
1	1242	2726
1	1241	2727
1	1242	2728
1	1241	2729
1	1233	2730
1	1224	2731
1	1222	2732
1	1227	2733
1	1233	2734
1	1241	2735
1	1243	2736
1	1249	2737
1	1263	2738
1	1278	2739
1	1293	2740
1	1315	2741
1	1327	2742
1	1338	2743
1	1346	2744
1	1346	2745
1	1328	2746
1	1305	2747
1	1262	2748
1	1227	2749
1	1190	2750
1	1157	2751
1	1124	2752
1	1100	2753
1	1079	2754
1	1068	2755
1	1067	2756
1	1075	2757
1	1088	2758
1	1098	2759
1	1111	2760
1	1130	2761
1	1149	2762
1	1158	2763
1	1160	2764
1	1153	2765
1	1139	2766
1	1134	2767
1	1112	2768
1	1082	2769
1	1046	2770
1	1011	2771
1	981	2772
1	954	2773
1	931	2774
1	918	2775
1	914	2776
1	922	2777
1	927	2778
1	943	2779
1	976	2780
1	1008	2781
1	1052	2782
1	1085	2783
1	1114	2784
1	1137	2785
1	1155	2786
1	1163	2787
1	1161	2788
1	1146	2789
1	1127	2790
1	1106	2791
1	1084	2792
1	1055	2793
1	1022	2794
1	990	2795
1	949	2796
1	914	2797
1	887	2798
1	876	2799
1	880	2800
1	900	2801
1	918	2802
1	929	2803
1	935	2804
1	927	2805
1	919	2806
1	908	2807
1	890	2808
1	874	2809
1	862	2810
1	857	2811
1	864	2812
1	876	2813
1	900	2814
1	927	2815
1	964	2816
1	998	2817
1	1011	2818
1	1017	2819
1	1016	2820
1	1006	2821
1	996	2822
1	988	2823
1	998	2824
1	1011	2825
1	1026	2826
1	1044	2827
1	1081	2828
1	1121	2829
1	1148	2830
1	1158	2831
1	1157	2832
1	1143	2833
1	1121	2834
1	1093	2835
1	1071	2836
1	1053	2837
1	1032	2838
1	1017	2839
1	1004	2840
1	1003	2841
1	1005	2842
1	1014	2843
1	1019	2844
1	1022	2845
1	1031	2846
1	1035	2847
1	1040	2848
1	1039	2849
1	1032	2850
1	1020	2851
1	1005	2852
1	983	2853
1	972	2854
1	959	2855
1	955	2856
1	954	2857
1	953	2858
1	949	2859
1	953	2860
1	965	2861
1	986	2862
1	999	2863
1	1010	2864
1	1015	2865
1	1013	2866
1	1008	2867
1	1015	2868
1	1035	2869
1	1076	2870
1	1112	2871
1	1129	2872
1	1112	2873
1	1071	2874
1	1018	2875
1	959	2876
1	902	2877
1	851	2878
1	814	2879
1	578	2900
1	584	2901
1	599	2902
1	629	2903
1	661	2904
1	687	2905
1	693	2906
1	693	2907
1	692	2908
1	693	2909
1	692	2910
1	695	2911
1	698	2912
1	697	2913
1	704	2914
1	717	2915
1	743	2916
1	781	2917
1	835	2918
1	905	2919
1	783	2880
1	759	2881
1	739	2882
1	729	2883
1	743	2884
1	757	2885
1	770	2886
1	790	2887
1	798	2888
1	804	2889
1	796	2890
1	768	2891
1	735	2892
1	693	2893
1	660	2894
1	630	2895
1	606	2896
1	587	2897
1	577	2898
1	576	2899
1	984	2920
1	1048	2921
1	1090	2922
1	1123	2923
1	1139	2924
1	1129	2925
1	1103	2926
1	1058	2927
1	1008	2928
1	950	2929
1	878	2930
1	805	2931
1	735	2932
1	675	2933
1	631	2934
1	603	2935
1	599	2936
1	608	2937
1	639	2938
1	693	2939
1	757	2940
1	822	2941
1	882	2942
1	926	2943
1	952	2944
1	980	2945
1	1005	2946
1	1022	2947
1	1034	2948
1	1033	2949
1	1023	2950
1	996	2951
1	955	2952
1	916	2953
1	889	2954
1	864	2955
1	853	2956
1	862	2957
1	888	2958
1	923	2959
1	974	2960
1	1031	2961
1	1089	2962
1	1145	2963
1	1188	2964
1	1220	2965
1	1245	2966
1	1261	2967
1	1267	2968
1	1268	2969
1	1258	2970
1	1237	2971
1	1205	2972
1	1175	2973
1	1166	2974
1	1167	2975
1	1184	2976
1	1221	2977
1	1267	2978
1	1328	2979
1	1404	2980
1	1478	2981
1	1565	2982
1	1651	2983
1	1737	2984
1	1821	2985
1	1897	2986
1	1974	2987
1	2025	2988
1	2069	2989
1	2106	2990
1	2138	2991
1	2168	2992
1	2183	2993
1	2199	2994
1	2209	2995
1	2217	2996
1	2236	2997
1	2259	2998
1	2293	2999
1	2338	3000
1	2381	3001
1	2434	3002
1	2492	3003
1	2555	3004
1	2637	3005
1	2725	3006
1	2810	3007
1	2888	3008
1	2962	3009
1	3018	3010
1	3072	3011
1	3122	3012
1	3130	3013
1	3130	3014
1	3130	3015
1	3130	3016
1	3130	3017
1	3130	3018
1	3130	3019
1	3130	3040
1	3130	3041
1	3130	3042
1	3130	3043
1	3130	3044
1	3130	3045
1	3130	3046
1	3130	3047
1	3130	3048
1	3130	3049
1	3130	3050
1	3130	3051
1	3130	3052
1	3130	3053
1	3130	3054
1	3130	3055
1	3130	3056
1	3130	3057
1	3130	3058
1	3130	3059
1	3130	3020
1	3130	3021
1	3130	3022
1	3130	3023
1	3130	3024
1	3130	3025
1	3130	3026
1	3130	3027
1	3130	3028
1	3130	3029
1	3130	3030
1	3130	3031
1	3130	3032
1	3130	3033
1	3130	3034
1	3130	3035
1	3130	3036
1	3130	3037
1	3130	3038
1	3130	3039
1	3130	3060
1	3130	3061
1	3130	3062
1	3130	3063
1	3130	3064
1	3130	3065
1	3130	3066
1	3130	3067
1	3130	3068
1	3130	3069
1	3130	3070
1	3130	3071
1	3130	3072
1	3130	3073
1	3130	3074
1	3130	3075
1	3130	3076
1	3130	3077
1	3130	3078
1	3130	3079
1	3130	3080
1	3130	3081
1	3130	3082
1	3130	3083
1	3130	3084
1	3130	3085
1	3130	3086
1	3130	3087
1	3130	3088
1	3130	3089
1	3130	3090
1	3130	3091
1	3130	3092
1	3130	3093
1	3130	3094
1	3130	3095
1	3130	3096
1	3130	3097
1	3130	3098
1	3130	3099
1	3130	3100
1	3130	3101
1	3130	3102
1	3130	3103
1	3130	3104
1	3130	3105
1	3130	3106
1	3130	3107
1	3130	3108
1	3130	3109
1	3130	3110
1	3130	3111
1	3130	3112
1	3130	3113
1	3130	3114
1	3130	3115
1	3130	3116
1	3130	3117
1	3130	3118
1	3130	3119
1	3130	3120
1	3130	3121
1	3130	3122
1	3130	3123
1	3130	3124
1	3130	3125
1	3130	3126
1	3130	3127
1	3130	3128
1	3130	3129
1	3130	3130
1	3130	3131
1	3130	3132
1	3130	3133
1	3130	3134
1	3130	3135
1	3130	3136
1	3130	3137
1	3130	3138
1	3130	3139
1	3130	3140
1	3130	3141
1	3130	3142
1	3130	3143
1	3130	3144
1	3130	3145
1	3130	3146
1	3130	3147
1	3130	3148
1	3130	3149
1	3130	3150
1	3130	3151
1	3130	3152
1	3130	3153
1	3130	3154
1	3130	3155
1	3130	3156
1	3130	3157
1	3130	3158
1	3130	3159
1	3130	3160
1	3130	3161
1	3130	3162
1	3130	3163
1	3130	3164
1	3130	3165
1	3130	3166
1	3130	3167
1	3130	3168
1	3130	3169
1	3130	3170
1	3130	3171
1	3130	3172
1	3130	3173
1	3130	3174
1	3130	3175
1	3130	3176
1	3130	3177
1	3130	3178
1	3130	3179
1	3130	3200
1	3130	3201
1	3130	3202
1	3130	3203
1	3130	3204
1	3130	3205
1	3130	3206
1	3130	3207
1	3130	3208
1	3130	3209
1	3130	3210
1	3130	3211
1	3130	3212
1	3130	3213
1	3130	3214
1	3130	3215
1	3130	3216
1	3130	3217
1	3130	3218
1	3130	3219
1	3130	3180
1	3130	3181
1	3130	3182
1	3130	3183
1	3130	3184
1	3130	3185
1	3130	3186
1	3130	3187
1	3130	3188
1	3130	3189
1	3130	3190
1	3130	3191
1	3130	3192
1	3130	3193
1	3130	3194
1	3130	3195
1	3130	3196
1	3130	3197
1	3130	3198
1	3130	3199
1	3130	3220
1	3130	3221
1	3130	3222
1	3130	3223
1	3130	3224
1	3130	3225
1	3130	3226
1	3130	3227
1	3130	3228
1	3130	3229
1	3130	3230
1	3130	3231
1	3130	3232
1	3130	3233
1	3130	3234
1	3130	3235
1	3130	3236
1	3130	3237
1	3130	3238
1	3130	3239
1	3130	3240
1	3130	3241
1	3130	3242
1	3130	3243
1	3130	3244
1	3130	3245
1	3130	3246
1	3130	3247
1	3130	3248
1	3130	3249
1	3061	3250
1	2997	3251
1	2934	3252
1	2871	3253
1	2812	3254
1	2751	3255
1	2694	3256
1	2646	3257
1	2602	3258
1	2572	3259
1	2539	3260
1	2509	3261
1	2480	3262
1	2442	3263
1	2417	3264
1	2395	3265
1	2377	3266
1	2354	3267
1	2339	3268
1	2327	3269
1	2318	3270
1	2314	3271
1	2310	3272
1	2297	3273
1	2294	3274
1	2296	3275
1	2298	3276
1	2309	3277
1	2314	3278
1	2339	3279
1	2363	3280
1	2394	3281
1	2433	3282
1	2482	3283
1	2525	3284
1	2585	3285
1	2653	3286
1	2720	3287
1	2784	3288
1	2844	3289
1	2885	3290
1	2915	3291
1	2933	3292
1	2962	3293
1	2971	3294
1	2995	3295
1	3025	3296
1	3057	3297
1	3084	3298
1	3105	3299
1	3117	3300
1	3115	3301
1	3100	3302
1	3073	3303
1	3032	3304
1	2980	3305
1	2931	3306
1	2873	3307
1	2818	3308
1	2764	3309
1	2705	3310
1	2645	3311
1	2584	3312
1	2523	3313
1	2467	3314
1	2397	3315
1	2341	3316
1	2291	3317
1	2251	3318
1	2230	3319
1	2214	3320
1	2209	3321
1	2202	3322
1	2184	3323
1	2170	3324
1	2140	3325
1	2120	3326
1	2100	3327
1	2077	3328
1	2066	3329
1	2064	3330
1	2066	3331
1	2075	3332
1	2079	3333
1	2079	3334
1	2081	3335
1	2088	3336
1	2096	3337
1	2104	3338
1	2112	3339
1	2132	3360
1	2143	3361
1	2157	3362
1	2157	3363
1	2156	3364
1	2142	3365
1	2131	3366
1	2130	3367
1	2123	3368
1	2117	3369
1	2106	3370
1	2093	3371
1	2075	3372
1	2057	3373
1	2043	3374
1	2030	3375
1	2025	3376
1	2019	3377
1	2010	3378
1	2003	3379
1	2125	3340
1	2140	3341
1	2157	3342
1	2165	3343
1	2165	3344
1	2163	3345
1	2170	3346
1	2183	3347
1	2197	3348
1	2230	3349
1	2251	3350
1	2263	3351
1	2264	3352
1	2260	3353
1	2232	3354
1	2195	3355
1	2170	3356
1	2152	3357
1	2136	3358
1	2131	3359
1	1737	3400
1	1713	3401
1	1697	3402
1	1685	3403
1	1674	3404
1	1667	3405
1	1660	3406
1	1647	3407
1	1625	3408
1	1607	3409
1	1585	3410
1	1565	3411
1	1548	3412
1	1543	3413
1	1538	3414
1	1542	3415
1	1554	3416
1	1557	3417
1	1563	3418
1	1571	3419
1	1998	3380
1	1986	3381
1	1976	3382
1	1971	3383
1	1953	3384
1	1933	3385
1	1917	3386
1	1906	3387
1	1900	3388
1	1895	3389
1	1892	3390
1	1881	3391
1	1870	3392
1	1856	3393
1	1843	3394
1	1832	3395
1	1817	3396
1	1801	3397
1	1778	3398
1	1759	3399
1	1526	3440
1	1524	3441
1	1524	3442
1	1526	3443
1	1521	3444
1	1518	3445
1	1510	3446
1	1503	3447
1	1488	3448
1	1467	3449
1	1445	3450
1	1422	3451
1	1395	3452
1	1359	3453
1	1340	3454
1	1323	3455
1	1314	3456
1	1306	3457
1	1307	3458
1	1298	3459
1	1579	3420
1	1580	3421
1	1580	3422
1	1561	3423
1	1544	3424
1	1526	3425
1	1505	3426
1	1491	3427
1	1490	3428
1	1490	3429
1	1494	3430
1	1501	3431
1	1504	3432
1	1515	3433
1	1526	3434
1	1532	3435
1	1537	3436
1	1537	3437
1	1529	3438
1	1527	3439
1	1289	3460
1	1277	3461
1	1268	3462
1	1263	3463
1	1260	3464
1	1250	3465
1	1241	3466
1	1222	3467
1	1196	3468
1	1170	3469
1	1138	3470
1	1106	3471
1	1072	3472
1	1044	3473
1	1033	3474
1	1035	3475
1	1049	3476
1	1062	3477
1	1073	3478
1	1076	3479
1	1069	3480
1	1053	3481
1	1030	3482
1	1001	3483
1	970	3484
1	941	3485
1	923	3486
1	916	3487
1	926	3488
1	923	3489
1	917	3490
1	902	3491
1	884	3492
1	862	3493
1	846	3494
1	827	3495
1	813	3496
1	796	3497
1	774	3498
1	760	3499
1	751	3500
1	738	3501
1	717	3502
1	701	3503
1	677	3504
1	654	3505
1	631	3506
1	611	3507
1	586	3508
1	559	3509
1	527	3510
1	505	3511
1	482	3512
1	463	3513
1	449	3514
1	439	3515
1	428	3516
1	427	3517
1	429	3518
1	443	3519
1	458	3520
1	472	3521
1	472	3522
1	459	3523
1	441	3524
1	407	3525
1	378	3526
1	351	3527
1	324	3528
1	295	3529
1	265	3530
1	240	3531
1	223	3532
1	220	3533
1	222	3534
1	236	3535
1	253	3536
1	274	3537
1	301	3538
1	330	3539
1	364	3540
1	392	3541
1	417	3542
1	433	3543
1	444	3544
1	448	3545
1	446	3546
1	438	3547
1	424	3548
1	399	3549
1	373	3550
1	351	3551
1	328	3552
1	312	3553
1	302	3554
1	298	3555
1	292	3556
1	285	3557
1	283	3558
1	292	3559
1	303	3560
1	317	3561
1	327	3562
1	342	3563
1	355	3564
1	367	3565
1	377	3566
1	387	3567
1	391	3568
1	387	3569
1	380	3570
1	377	3571
1	372	3572
1	366	3573
1	361	3574
1	358	3575
1	351	3576
1	347	3577
1	349	3578
1	353	3579
1	366	3580
1	376	3581
1	377	3582
1	376	3583
1	372	3584
1	366	3585
1	364	3586
1	366	3587
1	373	3588
1	378	3589
1	390	3590
1	396	3591
1	403	3592
1	413	3593
1	414	3594
1	409	3595
1	400	3596
1	387	3597
1	377	3598
1	373	3599
1	369	3600
1	373	3601
1	381	3602
1	390	3603
1	402	3604
1	411	3605
1	425	3606
1	441	3607
1	454	3608
1	456	3609
1	459	3610
1	466	3611
1	477	3612
1	482	3613
1	494	3614
1	505	3615
1	508	3616
1	508	3617
1	504	3618
1	503	3619
1	507	3620
1	513	3621
1	525	3622
1	534	3623
1	537	3624
1	534	3625
1	521	3626
1	503	3627
1	481	3628
1	455	3629
1	428	3630
1	398	3631
1	371	3632
1	350	3633
1	339	3634
1	338	3635
1	338	3636
1	341	3637
1	348	3638
1	351	3639
1	352	3640
1	356	3641
1	366	3642
1	381	3643
1	397	3644
1	418	3645
1	438	3646
1	455	3647
1	468	3648
1	474	3649
1	474	3650
1	468	3651
1	461	3652
1	456	3653
1	443	3654
1	429	3655
1	414	3656
1	403	3657
1	399	3658
1	403	3659
1	268	3680
1	272	3681
1	280	3682
1	282	3683
1	277	3684
1	270	3685
1	266	3686
1	261	3687
1	261	3688
1	260	3689
1	256	3690
1	255	3691
1	246	3692
1	238	3693
1	227	3694
1	222	3695
1	220	3696
1	227	3697
1	234	3698
1	243	3699
1	409	3660
1	423	3661
1	427	3662
1	427	3663
1	425	3664
1	428	3665
1	429	3666
1	435	3667
1	440	3668
1	436	3669
1	426	3670
1	405	3671
1	388	3672
1	368	3673
1	342	3674
1	313	3675
1	285	3676
1	270	3677
1	261	3678
1	262	3679
1	254	3700
1	270	3701
1	283	3702
1	288	3703
1	285	3704
1	272	3705
1	256	3706
1	233	3707
1	208	3708
1	180	3709
1	147	3710
1	128	3711
1	128	3712
1	128	3713
1	128	3714
1	128	3715
1	128	3716
1	128	3717
1	128	3718
1	128	3719
1	128	3720
1	128	3721
1	128	3722
1	128	3723
1	128	3724
1	128	3725
1	128	3726
1	128	3727
1	128	3728
1	128	3729
1	128	3730
1	128	3731
1	128	3732
1	128	3733
1	128	3734
1	128	3735
1	128	3736
1	128	3737
1	128	3738
1	128	3739
1	128	3760
1	128	3761
1	128	3762
1	128	3763
1	128	3764
1	128	3765
1	128	3766
1	128	3767
1	128	3768
1	128	3769
1	128	3770
1	128	3771
1	128	3772
1	128	3773
1	128	3774
1	128	3775
1	128	3776
1	128	3777
1	128	3778
1	128	3779
1	145	3740
1	153	3741
1	145	3742
1	138	3743
1	128	3744
1	128	3745
1	128	3746
1	128	3747
1	128	3748
1	128	3749
1	128	3750
1	128	3751
1	128	3752
1	128	3753
1	128	3754
1	128	3755
1	128	3756
1	128	3757
1	128	3758
1	128	3759
1	128	3800
1	128	3801
1	128	3802
1	128	3803
1	128	3804
1	128	3805
1	128	3806
1	128	3807
1	128	3808
1	128	3809
1	128	3810
1	128	3811
1	128	3812
1	128	3813
1	128	3814
1	128	3815
1	128	3816
1	128	3817
1	128	3818
1	128	3819
1	128	3780
1	128	3781
1	128	3782
1	128	3783
1	128	3784
1	128	3785
1	128	3786
1	128	3787
1	128	3788
1	128	3789
1	128	3790
1	128	3791
1	128	3792
1	128	3793
1	128	3794
1	128	3795
1	128	3796
1	128	3797
1	128	3798
1	128	3799
1	128	3820
1	128	3821
1	128	3822
1	128	3823
1	128	3824
1	128	3825
1	128	3826
1	128	3827
1	128	3828
1	128	3829
1	128	3830
1	128	3831
1	128	3832
1	128	3833
1	128	3834
1	128	3835
1	128	3836
1	128	3837
1	128	3838
1	128	3839
1	128	3840
1	128	3841
1	128	3842
1	128	3843
1	128	3844
1	128	3845
1	128	3846
1	128	3847
1	128	3848
1	128	3849
1	128	3850
1	128	3851
1	128	3852
1	128	3853
1	128	3854
1	128	3855
1	128	3856
1	128	3857
1	128	3858
1	128	3859
1	128	3860
1	128	3861
1	128	3862
1	128	3863
1	128	3864
1	128	3865
1	128	3866
1	128	3867
1	128	3868
1	128	3869
1	128	3870
1	128	3871
1	128	3872
1	128	3873
1	128	3874
1	128	3875
1	128	3876
1	128	3877
1	128	3878
1	128	3879
1	128	3880
1	128	3881
1	128	3882
1	128	3883
1	128	3884
1	128	3885
1	128	3886
1	128	3887
1	128	3888
1	128	3889
1	128	3890
1	128	3891
1	128	3892
1	128	3893
1	128	3894
1	128	3895
1	128	3896
1	128	3897
1	128	3898
1	128	3899
1	128	3900
1	128	3901
1	128	3902
1	128	3903
1	128	3904
1	128	3905
1	128	3906
1	128	3907
1	128	3908
1	128	3909
1	128	3910
1	128	3911
1	128	3912
1	128	3913
1	128	3914
1	128	3915
1	128	3916
1	128	3917
1	128	3918
1	128	3919
1	128	3920
1	128	3921
1	128	3922
1	128	3923
1	128	3924
1	128	3925
1	128	3926
1	128	3927
1	128	3928
1	128	3929
1	128	3930
1	128	3931
1	128	3932
1	128	3933
1	128	3934
1	128	3935
1	128	3936
1	128	3937
1	128	3938
1	128	3939
1	128	3940
1	128	3941
1	128	3942
1	128	3943
1	128	3944
1	128	3945
1	128	3946
1	128	3947
1	128	3948
1	128	3949
1	128	3950
1	128	3951
1	128	3952
1	128	3953
1	128	3954
1	128	3955
1	128	3956
1	128	3957
1	128	3958
1	128	3959
1	128	3960
1	128	3961
1	128	3962
1	128	3963
1	128	3964
1	128	3965
1	128	3966
1	128	3967
1	128	3968
1	128	3969
1	128	3970
1	128	3971
1	128	3972
1	128	3973
1	128	3974
1	128	3975
1	128	3976
1	128	3977
1	128	3978
1	128	3979
1	128	3980
1	128	3981
1	128	3982
1	128	3983
1	128	3984
1	128	3985
1	128	3986
1	128	3987
1	128	3988
1	128	3989
1	128	3990
1	128	3991
1	128	3992
1	128	3993
1	128	3994
1	128	3995
1	128	3996
1	128	3997
1	128	3998
1	128	3999
1	128	4000
1	128	4001
1	128	4002
1	128	4003
1	128	4004
1	128	4005
1	128	4006
1	128	4006
1	128	4008
1	128	4009
1	128	4010
1	128	4011
1	128	4012
1	234	4013
1	343	4014
1	441	4014
1	523	4016
1	599	4017
1	661	4018
1	715	4019
1	768	4020
1	804	4021
1	837	4022
1	860	4022
1	881	4024
1	898	4025
1	916	4026
1	941	4027
1	976	4028
1	990	4029
1	1003	4030
1	996	4030
1	983	4032
1	965	4033
1	953	4034
1	939	4035
1	927	4036
1	919	4037
1	905	4038
1	899	4038
1	898	4040
1	909	4041
1	927	4042
1	962	4043
1	1001	4044
1	1050	4045
1	1098	4046
1	1157	4046
1	1220	4048
1	1293	4049
1	1358	4050
1	1423	4051
1	1474	4052
1	1500	4053
1	1525	4054
1	1551	4054
1	1581	4056
1	1615	4057
1	1660	4058
1	1701	4059
1	1751	4060
1	1801	4061
1	1850	4062
1	1890	4062
1	1932	4064
1	1979	4065
1	2029	4066
1	2079	4067
1	2115	4068
1	2150	4069
1	2179	4070
1	2204	4070
1	2228	4072
1	2240	4073
1	2264	4074
1	2305	4075
1	2354	4076
1	2417	4077
1	2482	4078
1	2532	4078
1	2587	4080
1	2646	4081
1	2704	4082
1	2760	4083
1	2813	4084
1	2871	4085
1	2938	4086
1	3014	4086
1	3093	4088
1	3130	4089
1	3130	4090
1	3130	4091
1	3130	4092
1	3130	4093
1	3130	4094
1	3130	4094
1	3130	4096
1	3130	4097
1	3130	4098
1	3130	4099
1	3130	4100
1	3130	4101
1	3130	4102
1	3130	4103
1	3130	4104
1	3130	4105
1	3130	4106
1	3130	4107
1	3130	4108
1	3130	4109
1	3130	4110
1	3130	4111
1	3130	4112
1	3130	4113
1	3130	4114
1	3130	4115
1	3130	4116
1	3130	4117
1	3130	4118
1	3130	4119
1	3130	4120
1	3130	4121
1	3130	4122
1	3130	4123
1	3130	4124
1	3130	4125
1	3130	4126
1	3130	4127
1	3130	4128
1	3130	4129
1	3130	4130
1	3130	4131
1	3130	4132
1	3130	4133
1	3130	4134
1	3130	4135
1	3130	4136
1	3130	4137
1	3130	4138
1	3130	4139
1	3130	4140
1	3130	4141
1	3130	4142
1	3130	4143
1	3130	4144
1	3130	4145
1	3130	4146
1	3130	4147
1	3130	4148
1	3130	4149
1	3130	4150
1	3130	4151
1	3130	4152
1	3130	4153
1	3130	4154
1	3130	4155
1	3130	4156
1	3130	4157
1	3130	4158
1	3130	4159
1	3130	4180
1	3130	4181
1	3130	4182
1	3130	4183
1	3130	4184
1	3130	4185
1	3130	4186
1	3130	4187
1	3130	4188
1	3130	4189
1	3130	4190
1	3130	4191
1	3130	4192
1	3130	4193
1	3130	4194
1	3130	4195
1	3130	4196
1	3130	4197
1	3130	4198
1	3130	4199
1	3130	4200
1	3130	4201
1	3130	4202
1	3130	4203
1	3130	4204
1	3130	4205
1	3130	4206
1	3130	4207
1	3130	4208
1	3130	4209
1	3130	4210
1	3130	4211
1	3130	4212
1	3130	4213
1	3130	4214
1	3130	4215
1	3130	4216
1	3130	4217
1	3130	4218
1	3130	4219
1	3130	4160
1	3130	4161
1	3130	4162
1	3130	4163
1	3130	4164
1	3130	4165
1	3130	4166
1	3130	4167
1	3130	4168
1	3130	4169
1	3130	4170
1	3130	4171
1	3130	4172
1	3130	4173
1	3130	4174
1	3130	4175
1	3130	4176
1	3130	4177
1	3130	4178
1	3130	4179
1	3130	4220
1	3130	4221
1	3130	4222
1	3130	4223
1	3130	4224
1	3130	4225
1	3130	4226
1	3130	4227
1	3130	4228
1	3130	4229
1	3130	4230
1	3130	4231
1	3130	4232
1	3130	4233
1	3130	4234
1	3130	4235
1	3130	4236
1	3130	4237
1	3130	4238
1	3130	4239
1	3130	4260
1	3130	4261
1	3130	4262
1	3130	4263
1	3130	4264
1	3130	4265
1	3130	4266
1	3130	4267
1	3130	4268
1	3130	4269
1	3130	4270
1	3130	4271
1	3130	4272
1	3130	4273
1	3130	4274
1	3130	4275
1	3130	4276
1	3130	4277
1	3130	4278
1	3130	4279
1	3130	4260
1	3130	4261
1	3130	4262
1	3130	4263
1	3130	4264
1	3130	4265
1	3130	4266
1	3130	4267
1	3130	4268
1	3130	4269
1	3130	4270
1	3130	4271
1	3130	4272
1	3130	4273
1	3130	4274
1	3130	4275
1	3130	4276
1	3130	4277
1	3130	4278
1	3130	4279
1	3130	4280
1	3130	4281
1	3130	4282
1	3130	4283
1	3130	4284
1	3130	4285
1	3130	4286
1	3130	4287
1	3130	4288
1	3130	4289
1	3130	4290
1	3130	4291
1	3130	4292
1	3130	4293
1	3130	4294
1	3130	4295
1	3130	4296
1	3130	4297
1	3130	4298
1	3130	4299
1	3130	4300
1	3130	4301
1	3130	4302
1	3130	4303
1	3130	4304
1	3130	4305
1	3130	4306
1	3130	4307
1	3130	4308
1	3130	4309
1	3130	4310
1	3111	4311
1	3088	4312
1	3066	4313
1	3043	4314
1	3027	4315
1	3016	4316
1	3002	4317
1	2992	4318
1	2989	4319
1	2983	4320
1	2977	4321
1	2971	4322
1	2966	4323
1	2961	4324
1	2963	4325
1	2967	4326
1	2969	4327
1	2969	4328
1	2961	4329
1	2939	4330
1	2915	4331
1	2893	4332
1	2875	4333
1	2862	4334
1	2857	4335
1	2852	4336
1	2846	4337
1	2840	4338
1	2837	4339
1	2835	4340
1	2839	4341
1	2843	4342
1	2853	4343
1	2860	4344
1	2861	4345
1	2868	4346
1	2874	4347
1	2879	4348
1	2882	4349
1	2877	4350
1	2864	4351
1	2845	4352
1	2819	4353
1	2797	4354
1	2777	4355
1	2762	4356
1	2747	4357
1	2740	4358
1	2736	4359
1	2734	4360
1	2736	4361
1	2742	4362
1	2753	4363
1	2764	4364
1	2778	4365
1	2793	4366
1	2805	4367
1	2810	4368
1	2807	4369
1	2799	4370
1	2791	4371
1	2785	4372
1	2783	4373
1	2783	4374
1	2787	4375
1	2786	4376
1	2789	4377
1	2791	4378
1	2794	4379
1	2794	4380
1	2792	4381
1	2789	4382
1	2786	4383
1	2778	4384
1	2761	4385
1	2739	4386
1	2725	4387
1	2706	4388
1	2687	4389
1	2665	4390
1	2643	4391
1	2622	4392
1	2602	4393
1	2592	4394
1	2588	4395
1	2589	4396
1	2593	4397
1	2591	4398
1	2599	4399
1	2609	4400
1	2623	4401
1	2631	4402
1	2638	4403
1	2635	4404
1	2630	4405
1	2628	4406
1	2617	4407
1	2600	4408
1	2577	4409
1	2552	4410
1	2533	4411
1	2521	4412
1	2509	4413
1	2507	4414
1	2509	4415
1	2516	4416
1	2533	4417
1	2546	4418
1	2558	4419
1	2471	4440
1	2485	4441
1	2495	4442
1	2496	4443
1	2501	4444
1	2509	4445
1	2515	4446
1	2514	4447
1	2516	4448
1	2512	4449
1	2496	4450
1	2473	4451
1	2454	4452
1	2444	4453
1	2436	4454
1	2435	4455
1	2430	4456
1	2418	4457
1	2398	4458
1	2393	4459
1	2573	4440
1	2588	4441
1	2602	4442
1	2611	4443
1	2617	4444
1	2608	4445
1	2603	4446
1	2599	4447
1	2589	4448
1	2574	4449
1	2554	4450
1	2532	4451
1	2516	4452
1	2500	4453
1	2489	4454
1	2475	4455
1	2467	4456
1	2456	4457
1	2451	4458
1	2461	4459
1	2329	4480
1	2351	4481
1	2368	4482
1	2384	4483
1	2394	4484
1	2406	4485
1	2410	4486
1	2406	4487
1	2385	4488
1	2367	4489
1	2343	4490
1	2319	4491
1	2304	4492
1	2280	4493
1	2260	4494
1	2238	4495
1	2220	4496
1	2210	4497
1	2207	4498
1	2207	4499
1	2394	4460
1	2403	4461
1	2425	4462
1	2440	4463
1	2459	4464
1	2477	4465
1	2492	4466
1	2493	4467
1	2484	4468
1	2458	4469
1	2425	4470
1	2387	4471
1	2346	4472
1	2304	4473
1	2279	4474
1	2264	4475
1	2262	4476
1	2271	4477
1	2282	4478
1	2300	4479
1	2210	4500
1	2217	4501
1	2235	4502
1	2237	4503
1	2247	4504
1	2253	4505
1	2261	4506
1	2270	4507
1	2283	4508
1	2287	4509
1	2287	4510
1	2280	4511
1	2276	4512
1	2274	4513
1	2272	4514
1	2275	4515
1	2283	4516
1	2290	4517
1	2292	4518
1	2297	4519
1	2300	4520
1	2291	4521
1	2288	4522
1	2275	4523
1	2262	4524
1	2254	4525
1	2245	4526
1	2238	4527
1	2220	4528
1	2215	4529
1	2209	4530
1	2192	4531
1	2178	4532
1	2165	4533
1	2157	4534
1	2151	4535
1	2142	4536
1	2135	4537
1	2133	4538
1	2143	4539
1	2228	4560
1	2238	4561
1	2242	4562
1	2235	4563
1	2214	4564
1	2196	4565
1	2170	4566
1	2153	4567
1	2130	4568
1	2108	4569
1	2094	4570
1	2083	4571
1	2079	4572
1	2079	4573
1	2084	4574
1	2096	4575
1	2105	4576
1	2114	4577
1	2122	4578
1	2142	4579
1	2156	4540
1	2176	4541
1	2186	4542
1	2194	4543
1	2195	4544
1	2188	4545
1	2183	4546
1	2173	4547
1	2157	4548
1	2143	4549
1	2136	4550
1	2135	4551
1	2143	4552
1	2153	4553
1	2160	4554
1	2171	4555
1	2185	4556
1	2198	4557
1	2208	4558
1	2215	4559
1	2143	4600
1	2156	4601
1	2160	4602
1	2160	4603
1	2157	4604
1	2154	4605
1	2155	4606
1	2153	4607
1	2135	4608
1	2118	4609
1	2094	4610
1	2066	4611
1	2043	4612
1	2030	4613
1	2012	4614
1	1998	4615
1	1986	4616
1	1977	4617
1	1974	4618
1	1973	4619
1	2158	4580
1	2176	4581
1	2198	4582
1	2217	4583
1	2242	4584
1	2266	4585
1	2286	4586
1	2291	4587
1	2288	4588
1	2274	4589
1	2250	4590
1	2217	4591
1	2189	4592
1	2164	4593
1	2145	4594
1	2130	4595
1	2116	4596
1	2115	4597
1	2119	4598
1	2131	4599
1	1973	4620
1	1977	4621
1	1997	4622
1	2011	4623
1	2035	4624
1	2060	4625
1	2079	4626
1	2092	4627
1	2093	4628
1	2066	4629
1	2048	4630
1	2016	4631
1	1993	4632
1	1967	4633
1	1949	4634
1	1936	4635
1	1933	4636
1	1935	4637
1	1935	4638
1	1948	4639
1	1962	4640
1	1978	4641
1	1999	4642
1	2011	4643
1	2019	4644
1	2034	4645
1	2038	4646
1	2032	4647
1	2021	4648
1	2005	4649
1	1989	4650
1	1975	4651
1	1964	4652
1	1948	4653
1	1935	4654
1	1926	4655
1	1922	4656
1	1923	4657
1	1943	4658
1	1959	4659
1	1976	4660
1	1991	4661
1	2006	4662
1	2015	4663
1	2016	4664
1	2013	4665
1	2012	4666
1	2000	4667
1	1974	4668
1	1948	4669
1	1923	4670
1	1908	4671
1	1908	4672
1	1907	4673
1	1908	4674
1	1911	4675
1	1913	4676
1	1917	4677
1	1925	4678
1	1935	4679
1	1940	4680
1	1947	4681
1	1944	4682
1	1953	4683
1	1963	4684
1	1974	4685
1	1980	4686
1	1988	4687
1	1989	4688
1	1980	4689
1	1971	4690
1	1955	4691
1	1937	4692
1	1919	4693
1	1900	4694
1	1884	4695
1	1865	4696
1	1848	4697
1	1831	4698
1	1819	4699
1	1814	4700
1	1796	4701
1	1777	4702
1	1757	4703
1	1736	4704
1	1715	4705
1	1708	4706
1	1704	4707
1	1705	4708
1	1710	4709
1	1712	4710
1	1720	4711
1	1738	4712
1	1752	4713
1	1782	4714
1	1819	4715
1	1862	4716
1	1911	4717
1	1960	4718
1	2013	4719
1	2067	4720
1	2120	4721
1	2170	4722
1	2219	4723
1	2273	4724
1	2316	4725
1	2367	4726
1	2409	4727
1	2446	4728
1	2488	4729
1	2517	4730
1	2558	4731
1	2602	4732
1	2647	4733
1	2696	4734
1	2741	4735
1	2783	4736
1	2825	4737
1	2868	4738
1	2898	4739
1	2915	4740
1	2914	4741
1	2886	4742
1	2843	4743
1	2781	4744
1	2706	4745
1	2629	4746
1	2545	4747
1	2474	4748
1	2386	4749
1	2307	4750
1	2243	4751
1	2188	4752
1	2147	4753
1	2118	4754
1	2092	4755
1	2067	4756
1	2049	4757
1	2028	4758
1	2022	4759
1	2016	4760
1	2013	4761
1	2009	4762
1	1993	4763
1	1971	4764
1	1947	4765
1	1922	4766
1	1901	4767
1	1883	4768
1	1868	4769
1	1856	4770
1	1842	4771
1	1831	4772
1	1815	4773
1	1802	4774
1	1796	4775
1	1793	4776
1	1801	4777
1	1811	4778
1	1816	4779
1	1817	4780
1	1819	4781
1	1827	4782
1	1828	4783
1	1821	4784
1	1824	4785
1	1824	4786
1	1821	4787
1	1817	4788
1	1803	4789
1	1791	4790
1	1778	4791
1	1775	4792
1	1768	4793
1	1764	4794
1	1765	4795
1	1764	4796
1	1772	4797
1	1778	4798
1	1792	4799
1	1824	4800
1	1855	4801
1	1883	4802
1	1896	4803
1	1908	4804
1	1908	4805
1	1904	4806
1	1895	4807
1	1895	4808
1	1895	4809
1	1893	4810
1	1884	4811
1	1869	4812
1	1858	4813
1	1843	4814
1	1824	4815
1	1803	4816
1	1791	4817
1	1777	4818
1	1778	4819
1	1787	4820
1	1791	4821
1	1802	4822
1	1801	4823
1	1791	4824
1	1788	4825
1	1778	4826
1	1776	4827
1	1765	4828
1	1764	4829
1	1764	4830
1	1766	4831
1	1769	4832
1	1773	4833
1	1780	4834
1	1790	4835
1	1798	4836
1	1811	4837
1	1818	4838
1	1829	4839
1	1843	4860
1	1873	4861
1	1895	4862
1	1904	4863
1	1909	4864
1	1912	4865
1	1909	4866
1	1913	4867
1	1903	4868
1	1891	4869
1	1874	4870
1	1858	4871
1	1846	4872
1	1847	4873
1	1844	4874
1	1836	4875
1	1825	4876
1	1809	4877
1	1787	4878
1	1778	4879
1	1841	4840
1	1853	4841
1	1853	4842
1	1845	4843
1	1843	4844
1	1833	4845
1	1819	4846
1	1809	4847
1	1789	4848
1	1777	4849
1	1764	4850
1	1760	4851
1	1757	4852
1	1760	4853
1	1754	4854
1	1751	4855
1	1754	4856
1	1764	4857
1	1783	4858
1	1814	4859
1	1773	4880
1	1773	4881
1	1778	4882
1	1780	4883
1	1792	4884
1	1816	4885
1	1830	4886
1	1843	4887
1	1849	4888
1	1848	4889
1	1843	4890
1	1841	4891
1	1842	4892
1	1837	4893
1	1835	4894
1	1827	4895
1	1823	4896
1	1823	4897
1	1820	4898
1	1823	4899
1	1832	4900
1	1845	4901
1	1862	4902
1	1877	4903
1	1887	4904
1	1895	4905
1	1895	4906
1	1896	4907
1	1895	4908
1	1895	4909
1	1896	4910
1	1908	4911
1	1927	4912
1	1940	4913
1	1940	4914
1	1948	4915
1	1936	4916
1	1922	4917
1	1904	4918
1	1886	4919
1	1870	4920
1	1864	4921
1	1862	4922
1	1859	4923
1	1862	4924
1	1867	4925
1	1872	4926
1	1877	4927
1	1890	4928
1	1887	4929
1	1878	4930
1	1883	4931
1	1877	4932
1	1869	4933
1	1860	4934
1	1856	4935
1	1859	4936
1	1866	4937
1	1868	4938
1	1870	4939
1	1843	4980
1	1843	4981
1	1836	4982
1	1835	4983
1	1834	4984
1	1836	4985
1	1834	4986
1	1832	4987
1	1818	4988
1	1808	4989
1	1791	4990
1	1778	4991
1	1764	4992
1	1751	4993
1	1739	4994
1	1730	4995
1	1718	4996
1	1712	4997
1	1708	4998
1	1719	4999
1	1716	4960
1	1724	4961
1	1738	4962
1	1751	4963
1	1767	4964
1	1778	4965
1	1792	4966
1	1801	4967
1	1809	4968
1	1818	4969
1	1828	4970
1	1839	4971
1	1849	4972
1	1852	4973
1	1850	4974
1	1845	4975
1	1841	4976
1	1832	4977
1	1834	4978
1	1841	4979
1	1872	4940
1	1870	4941
1	1869	4942
1	1860	4943
1	1854	4944
1	1856	4945
1	1849	4946
1	1839	4947
1	1818	4948
1	1796	4949
1	1782	4950
1	1768	4951
1	1757	4952
1	1741	4953
1	1733	4954
1	1726	4955
1	1716	4956
1	1712	4957
1	1714	4958
1	1714	4959
1	1738	5000
1	1757	5001
1	1780	5002
1	1800	5003
1	1801	5004
1	1795	5005
1	1791	5006
1	1783	5007
1	1776	5008
1	1769	5009
1	1764	5010
1	1762	5011
1	1760	5012
1	1751	5013
1	1746	5014
1	1737	5015
1	1725	5016
1	1721	5017
1	1712	5018
1	1702	5019
1	1693	5020
1	1686	5021
1	1685	5022
1	1683	5023
1	1674	5024
1	1662	5025
1	1664	5026
1	1671	5027
1	1672	5028
1	1670	5029
1	1665	5030
1	1665	5031
1	1665	5032
1	1682	5033
1	1686	5034
1	1696	5035
1	1708	5036
1	1712	5037
1	1720	5038
1	1730	5039
1	1812	5060
1	1830	5061
1	1847	5062
1	1851	5063
1	1843	5064
1	1831	5065
1	1817	5066
1	1792	5067
1	1773	5068
1	1752	5069
1	1729	5070
1	1708	5071
1	1692	5072
1	1677	5073
1	1662	5074
1	1649	5075
1	1634	5076
1	1621	5077
1	1607	5078
1	1606	5079
1	1643	5100
1	1650	5101
1	1660	5102
1	1659	5103
1	1661	5104
1	1669	5105
1	1684	5106
1	1696	5107
1	1706	5108
1	1699	5109
1	1686	5110
1	1679	5111
1	1677	5112
1	1678	5113
1	1678	5114
1	1677	5115
1	1678	5116
1	1681	5117
1	1678	5118
1	1674	5119
1	1737	5040
1	1738	5041
1	1742	5042
1	1738	5043
1	1728	5044
1	1714	5045
1	1705	5046
1	1700	5047
1	1705	5048
1	1704	5049
1	1706	5050
1	1701	5051
1	1703	5052
1	1711	5053
1	1726	5054
1	1739	5055
1	1752	5056
1	1764	5057
1	1775	5058
1	1790	5059
1	1611	5080
1	1625	5081
1	1645	5082
1	1664	5083
1	1686	5084
1	1711	5085
1	1731	5086
1	1742	5087
1	1738	5088
1	1725	5089
1	1707	5090
1	1684	5091
1	1668	5092
1	1656	5093
1	1649	5094
1	1647	5095
1	1645	5096
1	1638	5097
1	1634	5098
1	1635	5099
1	1674	5120
1	1677	5121
1	1682	5122
1	1679	5123
1	1673	5124
1	1660	5125
1	1660	5126
1	1654	5127
1	1656	5128
1	1656	5129
1	1660	5130
1	1667	5131
1	1677	5132
1	1686	5133
1	1695	5134
1	1699	5135
1	1705	5136
1	1711	5137
1	1718	5138
1	1725	5139
1	1730	5140
1	1737	5141
1	1728	5142
1	1712	5143
1	1690	5144
1	1669	5145
1	1655	5146
1	1644	5147
1	1631	5148
1	1625	5149
1	1615	5150
1	1608	5151
1	1603	5152
1	1607	5153
1	1607	5154
1	1607	5155
1	1607	5156
1	1607	5157
1	1607	5158
1	1609	5159
1	1621	5180
1	1623	5181
1	1634	5182
1	1642	5183
1	1652	5184
1	1665	5185
1	1683	5186
1	1694	5187
1	1697	5188
1	1696	5189
1	1687	5190
1	1683	5191
1	1675	5192
1	1661	5193
1	1658	5194
1	1651	5195
1	1643	5196
1	1635	5197
1	1626	5198
1	1612	5199
1	1616	5160
1	1620	5161
1	1631	5162
1	1633	5163
1	1638	5164
1	1648	5165
1	1658	5166
1	1665	5167
1	1667	5168
1	1661	5169
1	1658	5170
1	1657	5171
1	1652	5172
1	1654	5173
1	1647	5174
1	1638	5175
1	1631	5176
1	1621	5177
1	1615	5178
1	1616	5179
1	1602	5200
1	1589	5201
1	1585	5202
1	1593	5203
1	1604	5204
1	1616	5205
1	1632	5206
1	1643	5207
1	1650	5208
1	1649	5209
1	1645	5210
1	1628	5211
1	1605	5212
1	1584	5213
1	1562	5214
1	1547	5215
1	1538	5216
1	1534	5217
1	1537	5218
1	1543	5219
1	1552	5220
1	1561	5221
1	1575	5222
1	1580	5223
1	1583	5224
1	1592	5225
1	1597	5226
1	1600	5227
1	1607	5228
1	1607	5229
1	1607	5230
1	1617	5231
1	1626	5232
1	1636	5233
1	1654	5234
1	1669	5235
1	1686	5236
1	1705	5237
1	1710	5238
1	1705	5239
1	1593	5260
1	1584	5261
1	1580	5262
1	1574	5263
1	1571	5264
1	1568	5265
1	1577	5266
1	1590	5267
1	1596	5268
1	1604	5269
1	1607	5270
1	1607	5271
1	1607	5272
1	1600	5273
1	1593	5274
1	1589	5275
1	1585	5276
1	1582	5277
1	1584	5278
1	1587	5279
1	1688	5240
1	1661	5241
1	1634	5242
1	1609	5243
1	1584	5244
1	1580	5245
1	1574	5246
1	1579	5247
1	1574	5248
1	1568	5249
1	1560	5250
1	1557	5251
1	1559	5252
1	1559	5253
1	1564	5254
1	1571	5255
1	1581	5256
1	1588	5257
1	1598	5258
1	1594	5259
1	1590	5280
1	1593	5281
1	1585	5282
1	1581	5283
1	1579	5284
1	1576	5285
1	1570	5286
1	1571	5287
1	1569	5288
1	1572	5289
1	1578	5290
1	1579	5291
1	1578	5292
1	1581	5293
1	1585	5294
1	1590	5295
1	1593	5296
1	1594	5297
1	1598	5298
1	1607	5299
1	1620	5300
1	1630	5301
1	1643	5302
1	1660	5303
1	1675	5304
1	1689	5305
1	1697	5306
1	1699	5307
1	1692	5308
1	1674	5309
1	1652	5310
1	1636	5311
1	1629	5312
1	1627	5313
1	1634	5314
1	1651	5315
1	1665	5316
1	1686	5317
1	1698	5318
1	1706	5319
1	1712	5320
1	1710	5321
1	1699	5322
1	1683	5323
1	1668	5324
1	1656	5325
1	1652	5326
1	1647	5327
1	1643	5328
1	1638	5329
1	1634	5330
1	1635	5331
1	1634	5332
1	1629	5333
1	1616	5334
1	1611	5335
1	1607	5336
1	1602	5337
1	1595	5338
1	1593	5339
1	1587	5340
1	1581	5341
1	1581	5342
1	1580	5343
1	1580	5344
1	1580	5345
1	1573	5346
1	1557	5347
1	1548	5348
1	1529	5349
1	1507	5350
1	1492	5351
1	1485	5352
1	1482	5353
1	1487	5354
1	1489	5355
1	1490	5356
1	1490	5357
1	1492	5358
1	1503	5359
1	1519	5360
1	1531	5361
1	1555	5362
1	1580	5363
1	1598	5364
1	1607	5365
1	1607	5366
1	1607	5367
1	1597	5368
1	1582	5369
1	1569	5370
1	1553	5371
1	1534	5372
1	1513	5373
1	1500	5374
1	1489	5375
1	1481	5376
1	1481	5377
1	1476	5378
1	1476	5379
1	1477	5380
1	1481	5381
1	1490	5382
1	1498	5383
1	1499	5384
1	1494	5385
1	1485	5386
1	1478	5387
1	1469	5388
1	1468	5389
1	1474	5390
1	1484	5391
1	1499	5392
1	1505	5393
1	1516	5394
1	1526	5395
1	1531	5396
1	1541	5397
1	1549	5398
1	1553	5399
1	1553	5400
1	1554	5401
1	1555	5402
1	1554	5403
1	1554	5404
1	1555	5405
1	1556	5406
1	1556	5407
1	1557	5408
1	1546	5409
1	1529	5410
1	1505	5411
1	1487	5412
1	1463	5413
1	1437	5414
1	1414	5415
1	1397	5416
1	1377	5417
1	1368	5418
1	1368	5419
1	1379	5420
1	1404	5421
1	1436	5422
1	1458	5423
1	1476	5424
1	1478	5425
1	1485	5426
1	1475	5427
1	1449	5428
1	1408	5429
1	1358	5430
1	1314	5431
1	1274	5432
1	1244	5433
1	1225	5434
1	1216	5435
1	1215	5436
1	1227	5437
1	1245	5438
1	1273	5439
1	1317	5440
1	1364	5441
1	1410	5442
1	1450	5443
1	1495	5444
1	1537	5445
1	1581	5446
1	1622	5447
1	1657	5448
1	1688	5449
1	1720	5450
1	1748	5451
1	1765	5452
1	1791	5453
1	1815	5454
1	1841	5455
1	1869	5456
1	1908	5457
1	1962	5458
1	2025	5459
1	2092	5460
1	2157	5461
1	2220	5462
1	2273	5463
1	2324	5464
1	2372	5465
1	2417	5466
1	2449	5467
1	2456	5468
1	2436	5469
1	2392	5470
1	2332	5471
1	2262	5472
1	2182	5473
1	2105	5474
1	2029	5475
1	1961	5476
1	1901	5477
1	1843	5478
1	1791	5479
1	1744	5480
1	1706	5481
1	1676	5482
1	1647	5483
1	1620	5484
1	1593	5485
1	1568	5486
1	1544	5487
1	1521	5488
1	1492	5489
1	1463	5490
1	1437	5491
1	1412	5492
1	1382	5493
1	1363	5494
1	1344	5495
1	1328	5496
1	1319	5497
1	1319	5498
1	1330	5499
1	1346	5500
1	1364	5501
1	1379	5502
1	1397	5503
1	1410	5504
1	1424	5505
1	1439	5506
1	1450	5507
1	1459	5508
1	1472	5509
1	1479	5510
1	1476	5511
1	1466	5512
1	1454	5513
1	1437	5514
1	1420	5515
1	1401	5516
1	1392	5517
1	1383	5518
1	1382	5519
1	1494	5540
1	1505	5541
1	1510	5542
1	1513	5543
1	1505	5544
1	1513	5545
1	1504	5546
1	1494	5547
1	1476	5548
1	1454	5549
1	1431	5550
1	1411	5551
1	1399	5552
1	1394	5553
1	1396	5554
1	1402	5555
1	1411	5556
1	1422	5557
1	1437	5558
1	1450	5559
1	1384	5520
1	1382	5521
1	1384	5522
1	1380	5523
1	1383	5524
1	1391	5525
1	1398	5526
1	1406	5527
1	1418	5528
1	1419	5529
1	1408	5530
1	1404	5531
1	1395	5532
1	1392	5533
1	1398	5534
1	1410	5535
1	1424	5536
1	1441	5537
1	1453	5538
1	1476	5539
1	1471	5560
1	1492	5561
1	1517	5562
1	1539	5563
1	1553	5564
1	1555	5565
1	1544	5566
1	1529	5567
1	1502	5568
1	1476	5569
1	1449	5570
1	1426	5571
1	1418	5572
1	1412	5573
1	1415	5574
1	1422	5575
1	1430	5576
1	1439	5577
1	1454	5578
1	1468	5579
1	1480	5580
1	1492	5581
1	1498	5582
1	1502	5583
1	1502	5584
1	1497	5585
1	1487	5586
1	1475	5587
1	1453	5588
1	1436	5589
1	1423	5590
1	1411	5591
1	1404	5592
1	1400	5593
1	1409	5594
1	1416	5595
1	1424	5596
1	1436	5597
1	1446	5598
1	1464	5599
1	1480	5600
1	1499	5601
1	1515	5602
1	1537	5603
1	1544	5604
1	1550	5605
1	1550	5606
1	1550	5607
1	1544	5608
1	1540	5609
1	1531	5610
1	1527	5611
1	1517	5612
1	1504	5613
1	1499	5614
1	1494	5615
1	1495	5616
1	1508	5617
1	1526	5618
1	1542	5619
1	1557	5640
1	1573	5641
1	1585	5642
1	1586	5643
1	1594	5644
1	1599	5645
1	1598	5646
1	1589	5647
1	1578	5648
1	1557	5649
1	1540	5650
1	1527	5651
1	1511	5652
1	1503	5653
1	1503	5654
1	1505	5655
1	1517	5656
1	1529	5657
1	1538	5658
1	1553	5659
1	1556	5620
1	1574	5621
1	1582	5622
1	1584	5623
1	1583	5624
1	1572	5625
1	1564	5626
1	1555	5627
1	1543	5628
1	1528	5629
1	1512	5630
1	1502	5631
1	1490	5632
1	1479	5633
1	1471	5634
1	1476	5635
1	1489	5636
1	1501	5637
1	1519	5638
1	1536	5639
1	1564	5660
1	1577	5661
1	1593	5662
1	1602	5663
1	1616	5664
1	1633	5665
1	1641	5666
1	1643	5667
1	1636	5668
1	1620	5669
1	1595	5670
1	1572	5671
1	1542	5672
1	1507	5673
1	1481	5674
1	1458	5675
1	1442	5676
1	1435	5677
1	1428	5678
1	1425	5679
1	1424	5680
1	1426	5681
1	1431	5682
1	1440	5683
1	1452	5684
1	1468	5685
1	1487	5686
1	1505	5687
1	1511	5688
1	1519	5689
1	1525	5690
1	1524	5691
1	1525	5692
1	1515	5693
1	1503	5694
1	1497	5695
1	1495	5696
1	1495	5697
1	1503	5698
1	1512	5699
1	1525	5700
1	1533	5701
1	1539	5702
1	1529	5703
1	1517	5704
1	1508	5705
1	1494	5706
1	1479	5707
1	1453	5708
1	1431	5709
1	1412	5710
1	1397	5711
1	1379	5712
1	1373	5713
1	1377	5714
1	1394	5715
1	1400	5716
1	1418	5717
1	1425	5718
1	1440	5719
1	1453	5720
1	1463	5721
1	1476	5722
1	1475	5723
1	1472	5724
1	1466	5725
1	1474	5726
1	1477	5727
1	1485	5728
1	1487	5729
1	1485	5730
1	1484	5731
1	1477	5732
1	1467	5733
1	1453	5734
1	1445	5735
1	1437	5736
1	1428	5737
1	1424	5738
1	1410	5739
1	1407	5740
1	1400	5741
1	1395	5742
1	1384	5743
1	1376	5744
1	1369	5745
1	1357	5746
1	1351	5747
1	1346	5748
1	1344	5749
1	1346	5750
1	1346	5751
1	1350	5752
1	1362	5753
1	1368	5754
1	1371	5755
1	1372	5756
1	1382	5757
1	1398	5758
1	1416	5759
1	1436	5760
1	1451	5761
1	1463	5762
1	1460	5763
1	1451	5764
1	1442	5765
1	1429	5766
1	1422	5767
1	1407	5768
1	1394	5769
1	1376	5770
1	1368	5771
1	1366	5772
1	1370	5773
1	1374	5774
1	1384	5775
1	1400	5776
1	1420	5777
1	1436	5778
1	1452	5779
1	1474	5780
1	1490	5781
1	1507	5782
1	1526	5783
1	1542	5784
1	1555	5785
1	1564	5786
1	1568	5787
1	1566	5788
1	1557	5789
1	1541	5790
1	1517	5791
1	1490	5792
1	1456	5793
1	1435	5794
1	1415	5795
1	1400	5796
1	1398	5797
1	1397	5798
1	1395	5799
1	1398	5800
1	1399	5801
1	1402	5802
1	1409	5803
1	1418	5804
1	1427	5805
1	1435	5806
1	1440	5807
1	1437	5808
1	1440	5809
1	1446	5810
1	1450	5811
1	1455	5812
1	1459	5813
1	1454	5814
1	1450	5815
1	1446	5816
1	1442	5817
1	1442	5818
1	1446	5819
1	1449	5820
1	1445	5821
1	1431	5822
1	1407	5823
1	1382	5824
1	1372	5825
1	1371	5826
1	1376	5827
1	1398	5828
1	1412	5829
1	1420	5830
1	1433	5831
1	1447	5832
1	1461	5833
1	1474	5834
1	1482	5835
1	1490	5836
1	1490	5837
1	1476	5838
1	1465	5839
1	1456	5840
1	1454	5841
1	1451	5842
1	1452	5843
1	1450	5844
1	1466	5845
1	1468	5846
1	1465	5847
1	1460	5848
1	1458	5849
1	1454	5850
1	1454	5851
1	1453	5852
1	1454	5853
1	1464	5854
1	1476	5855
1	1486	5856
1	1494	5857
1	1512	5858
1	1528	5859
1	1545	5860
1	1567	5861
1	1585	5862
1	1607	5863
1	1621	5864
1	1626	5865
1	1624	5866
1	1616	5867
1	1593	5868
1	1566	5869
1	1534	5870
1	1502	5871
1	1474	5872
1	1440	5873
1	1415	5874
1	1396	5875
1	1382	5876
1	1382	5877
1	1391	5878
1	1400	5879
1	1417	5880
1	1430	5881
1	1437	5882
1	1437	5883
1	1438	5884
1	1442	5885
1	1450	5886
1	1466	5887
1	1476	5888
1	1476	5889
1	1469	5890
1	1463	5891
1	1450	5892
1	1441	5893
1	1436	5894
1	1433	5895
1	1434	5896
1	1438	5897
1	1447	5898
1	1464	5899
1	1485	5900
1	1499	5901
1	1502	5902
1	1508	5903
1	1511	5904
1	1508	5905
1	1507	5906
1	1503	5907
1	1495	5908
1	1485	5909
1	1471	5910
1	1450	5911
1	1437	5912
1	1424	5913
1	1418	5914
1	1416	5915
1	1415	5916
1	1427	5917
1	1438	5918
1	1453	5919
1	1468	5920
1	1476	5921
1	1480	5922
1	1492	5923
1	1502	5924
1	1503	5925
1	1511	5926
1	1518	5927
1	1526	5928
1	1529	5929
1	1531	5930
1	1535	5931
1	1534	5932
1	1530	5933
1	1517	5934
1	1507	5935
1	1491	5936
1	1469	5937
1	1450	5938
1	1437	5939
1	1429	5940
1	1425	5941
1	1427	5942
1	1430	5943
1	1437	5944
1	1442	5945
1	1448	5946
1	1449	5947
1	1456	5948
1	1465	5949
1	1477	5950
1	1494	5951
1	1509	5952
1	1520	5953
1	1529	5954
1	1529	5955
1	1529	5956
1	1528	5957
1	1521	5958
1	1523	5959
1	1529	5960
1	1536	5961
1	1545	5962
1	1544	5963
1	1534	5964
1	1526	5965
1	1512	5966
1	1495	5967
1	1476	5968
1	1459	5969
1	1442	5970
1	1429	5971
1	1423	5972
1	1410	5973
1	1407	5974
1	1405	5975
1	1407	5976
1	1415	5977
1	1427	5978
1	1449	5979
1	1467	5980
1	1479	5981
1	1488	5982
1	1487	5983
1	1483	5984
1	1482	5985
1	1482	5986
1	1479	5987
1	1476	5988
1	1464	5989
1	1450	5990
1	1441	5991
1	1441	5992
1	1447	5993
1	1456	5994
1	1477	5995
1	1500	5996
1	1521	5997
1	1541	5998
1	1553	5999
1	1553	6000
1	1546	6001
1	1539	6002
1	1528	6003
1	1512	6004
1	1501	6005
1	1489	6006
1	1477	6007
1	1474	6008
1	1466	6009
1	1463	6010
1	1461	6011
1	1460	6012
1	1460	6013
1	1456	6014
1	1449	6015
1	1438	6016
1	1426	6017
1	1415	6018
1	1412	6019
1	1420	6020
1	1432	6021
1	1453	6022
1	1472	6023
1	1489	6024
1	1502	6025
1	1528	6026
1	1544	6027
1	1565	6028
1	1569	6029
1	1572	6030
1	1574	6031
1	1574	6032
1	1579	6033
1	1584	6034
1	1585	6035
1	1580	6036
1	1581	6037
1	1590	6038
1	1598	6039
1	1607	6040
1	1619	6041
1	1617	6042
1	1610	6043
1	1602	6044
1	1592	6045
1	1581	6046
1	1573	6047
1	1561	6048
1	1560	6049
1	1562	6050
1	1562	6051
1	1562	6052
1	1569	6053
1	1575	6054
1	1581	6055
1	1580	6056
1	1575	6057
1	1568	6058
1	1563	6059
1	1559	6060
1	1559	6061
1	1560	6062
1	1556	6063
1	1555	6064
1	1553	6065
1	1548	6066
1	1546	6067
1	1542	6068
1	1535	6069
1	1529	6070
1	1526	6071
1	1521	6072
1	1523	6073
1	1521	6074
1	1514	6075
1	1512	6076
1	1512	6077
1	1512	6078
1	1515	6079
1	1517	6080
1	1517	6081
1	1526	6082
1	1528	6083
1	1526	6084
1	1523	6085
1	1515	6086
1	1506	6087
1	1499	6088
1	1491	6089
1	1481	6090
1	1469	6091
1	1456	6092
1	1446	6093
1	1440	6094
1	1437	6095
1	1440	6096
1	1453	6097
1	1468	6098
1	1482	6099
1	1503	6100
1	1520	6101
1	1533	6102
1	1542	6103
1	1546	6104
1	1549	6105
1	1548	6106
1	1540	6107
1	1518	6108
1	1503	6109
1	1481	6110
1	1463	6111
1	1448	6112
1	1438	6113
1	1430	6114
1	1427	6115
1	1427	6116
1	1430	6117
1	1430	6118
1	1436	6119
1	1445	6120
1	1453	6121
1	1458	6122
1	1454	6123
1	1461	6124
1	1467	6125
1	1476	6126
1	1481	6127
1	1487	6128
1	1479	6129
1	1464	6130
1	1463	6131
1	1461	6132
1	1462	6133
1	1459	6134
1	1458	6135
1	1454	6136
1	1456	6137
1	1456	6138
1	1465	6139
1	1476	6140
1	1487	6141
1	1490	6142
1	1492	6143
1	1492	6144
1	1495	6145
1	1490	6146
1	1481	6147
1	1467	6148
1	1450	6149
1	1436	6150
1	1422	6151
1	1409	6152
1	1384	6153
1	1372	6154
1	1356	6155
1	1346	6156
1	1349	6157
1	1348	6158
1	1346	6159
1	1342	6160
1	1340	6161
1	1338	6162
1	1337	6163
1	1330	6164
1	1319	6165
1	1317	6166
1	1309	6167
1	1296	6168
1	1287	6169
1	1279	6170
1	1277	6171
1	1291	6172
1	1310	6173
1	1337	6174
1	1373	6175
1	1430	6176
1	1494	6177
1	1561	6178
1	1625	6179
1	1672	6180
1	1715	6181
1	1751	6182
1	1787	6183
1	1832	6184
1	1881	6185
1	1935	6186
1	1996	6187
1	2042	6188
1	2081	6189
1	2129	6190
1	2174	6191
1	2215	6192
1	2258	6193
1	2301	6194
1	2343	6195
1	2382	6196
1	2418	6197
1	2435	6198
1	2445	6199
1	2440	6200
1	2407	6201
1	2359	6202
1	2307	6203
1	2242	6204
1	2170	6205
1	2102	6206
1	2027	6207
1	1953	6208
1	1885	6209
1	1818	6210
1	1760	6211
1	1707	6212
1	1657	6213
1	1619	6214
1	1592	6215
1	1570	6216
1	1559	6217
1	1555	6218
1	1551	6219
1	1553	6220
1	1548	6221
1	1545	6222
1	1539	6223
1	1532	6224
1	1520	6225
1	1508	6226
1	1495	6227
1	1476	6228
1	1451	6229
1	1424	6230
1	1397	6231
1	1371	6232
1	1348	6233
1	1340	6234
1	1332	6235
1	1333	6236
1	1334	6237
1	1343	6238
1	1355	6239
1	1374	6240
1	1400	6241
1	1424	6242
1	1440	6243
1	1455	6244
1	1465	6245
1	1474	6246
1	1473	6247
1	1467	6248
1	1448	6249
1	1424	6250
1	1400	6251
1	1377	6252
1	1364	6253
1	1350	6254
1	1346	6255
1	1350	6256
1	1364	6257
1	1375	6258
1	1399	6259
1	1454	6280
1	1463	6281
1	1465	6282
1	1463	6283
1	1467	6284
1	1471	6285
1	1474	6286
1	1476	6287
1	1475	6288
1	1472	6289
1	1473	6290
1	1472	6291
1	1476	6292
1	1474	6293
1	1465	6294
1	1454	6295
1	1449	6296
1	1449	6297
1	1450	6298
1	1463	6299
1	1428	6260
1	1458	6261
1	1489	6262
1	1503	6263
1	1512	6264
1	1507	6265
1	1503	6266
1	1490	6267
1	1480	6268
1	1466	6269
1	1451	6270
1	1441	6271
1	1437	6272
1	1427	6273
1	1424	6274
1	1417	6275
1	1417	6276
1	1427	6277
1	1437	6278
1	1449	6279
1	1469	6300
1	1464	6301
1	1454	6302
1	1448	6303
1	1450	6304
1	1464	6305
1	1478	6306
1	1494	6307
1	1504	6308
1	1508	6309
1	1506	6310
1	1502	6311
1	1492	6312
1	1488	6313
1	1482	6314
1	1477	6315
1	1476	6316
1	1477	6317
1	1481	6318
1	1491	6319
1	1501	6320
1	1506	6321
1	1512	6322
1	1513	6323
1	1505	6324
1	1494	6325
1	1485	6326
1	1467	6327
1	1456	6328
1	1450	6329
1	1449	6330
1	1443	6331
1	1438	6332
1	1439	6333
1	1442	6334
1	1448	6335
1	1450	6336
1	1449	6337
1	1450	6338
1	1458	6339
1	1476	6340
1	1500	6341
1	1521	6342
1	1540	6343
1	1556	6344
1	1569	6345
1	1579	6346
1	1578	6347
1	1562	6348
1	1548	6349
1	1528	6350
1	1503	6351
1	1480	6352
1	1469	6353
1	1454	6354
1	1449	6355
1	1449	6356
1	1461	6357
1	1478	6358
1	1506	6359
1	1533	6360
1	1559	6361
1	1580	6362
1	1594	6363
1	1607	6364
1	1622	6365
1	1633	6366
1	1641	6367
1	1639	6368
1	1626	6369
1	1599	6370
1	1567	6371
1	1539	6372
1	1516	6373
1	1499	6374
1	1490	6375
1	1500	6376
1	1521	6377
1	1550	6378
1	1573	6379
1	1590	6380
1	1602	6381
1	1615	6382
1	1620	6383
1	1626	6384
1	1631	6385
1	1629	6386
1	1618	6387
1	1608	6388
1	1603	6389
1	1594	6390
1	1581	6391
1	1561	6392
1	1536	6393
1	1514	6394
1	1490	6395
1	1476	6396
1	1471	6397
1	1464	6398
1	1461	6399
1	1465	6400
1	1469	6401
1	1472	6402
1	1472	6403
1	1472	6404
1	1466	6405
1	1463	6406
1	1458	6407
1	1452	6408
1	1450	6409
1	1453	6410
1	1455	6411
1	1461	6412
1	1476	6413
1	1489	6414
1	1503	6415
1	1511	6416
1	1517	6417
1	1520	6418
1	1516	6419
1	1506	6420
1	1507	6421
1	1508	6422
1	1503	6423
1	1503	6424
1	1500	6425
1	1493	6426
1	1481	6427
1	1476	6428
1	1466	6429
1	1449	6430
1	1440	6431
1	1426	6432
1	1420	6433
1	1422	6434
1	1425	6435
1	1437	6436
1	1449	6437
1	1453	6438
1	1461	6439
1	1469	6440
1	1472	6441
1	1475	6442
1	1471	6443
1	1469	6444
1	1472	6445
1	1481	6446
1	1488	6447
1	1485	6448
1	1472	6449
1	1450	6450
1	1427	6451
1	1412	6452
1	1402	6453
1	1407	6454
1	1416	6455
1	1429	6456
1	1446	6457
1	1469	6458
1	1484	6459
1	1490	6460
1	1494	6461
1	1494	6462
1	1494	6463
1	1490	6464
1	1485	6465
1	1477	6466
1	1467	6467
1	1454	6468
1	1443	6469
1	1431	6470
1	1415	6471
1	1405	6472
1	1390	6473
1	1373	6474
1	1359	6475
1	1346	6476
1	1346	6477
1	1348	6478
1	1357	6479
1	1365	6480
1	1375	6481
1	1383	6482
1	1380	6483
1	1383	6484
1	1391	6485
1	1394	6486
1	1398	6487
1	1402	6488
1	1401	6489
1	1398	6490
1	1384	6491
1	1376	6492
1	1372	6493
1	1370	6494
1	1372	6495
1	1372	6496
1	1374	6497
1	1378	6498
1	1392	6499
1	1403	6500
1	1413	6501
1	1427	6502
1	1433	6503
1	1436	6504
1	1437	6505
1	1438	6506
1	1445	6507
1	1446	6508
1	1443	6509
1	1437	6510
1	1434	6511
1	1434	6512
1	1433	6513
1	1437	6514
1	1436	6515
1	1426	6516
1	1426	6517
1	1427	6518
1	1427	6519
1	1429	6540
1	1430	6541
1	1434	6542
1	1435	6543
1	1435	6544
1	1425	6545
1	1420	6546
1	1410	6547
1	1406	6548
1	1405	6549
1	1400	6550
1	1398	6551
1	1396	6552
1	1395	6553
1	1400	6554
1	1413	6555
1	1425	6556
1	1447	6557
1	1456	6558
1	1467	6559
1	1474	6540
1	1481	6541
1	1486	6542
1	1482	6543
1	1476	6544
1	1474	6545
1	1461	6546
1	1453	6547
1	1451	6548
1	1440	6549
1	1427	6550
1	1415	6551
1	1399	6552
1	1384	6553
1	1373	6554
1	1368	6555
1	1363	6556
1	1364	6557
1	1368	6558
1	1377	6559
1	1399	6560
1	1415	6561
1	1435	6562
1	1440	6563
1	1449	6564
1	1453	6565
1	1458	6566
1	1462	6567
1	1463	6568
1	1461	6569
1	1454	6570
1	1441	6571
1	1427	6572
1	1410	6573
1	1398	6574
1	1398	6575
1	1404	6576
1	1430	6577
1	1455	6578
1	1482	6579
1	1495	6600
1	1503	6601
1	1503	6602
1	1490	6603
1	1476	6604
1	1468	6605
1	1458	6606
1	1453	6607
1	1449	6608
1	1445	6609
1	1443	6610
1	1448	6611
1	1449	6612
1	1450	6613
1	1448	6614
1	1451	6615
1	1458	6616
1	1468	6617
1	1474	6618
1	1478	6619
1	1502	6580
1	1513	6581
1	1520	6582
1	1517	6583
1	1507	6584
1	1495	6585
1	1480	6586
1	1467	6587
1	1449	6588
1	1433	6589
1	1416	6590
1	1404	6591
1	1405	6592
1	1409	6593
1	1412	6594
1	1420	6595
1	1435	6596
1	1450	6597
1	1467	6598
1	1481	6599
1	1486	6620
1	1494	6621
1	1503	6622
1	1503	6623
1	1501	6624
1	1488	6625
1	1484	6626
1	1476	6627
1	1463	6628
1	1456	6629
1	1448	6630
1	1437	6631
1	1429	6632
1	1417	6633
1	1413	6634
1	1421	6635
1	1431	6636
1	1459	6637
1	1476	6638
1	1491	6639
1	1500	6640
1	1501	6641
1	1503	6642
1	1498	6643
1	1494	6644
1	1490	6645
1	1482	6646
1	1476	6647
1	1454	6648
1	1441	6649
1	1433	6650
1	1426	6651
1	1425	6652
1	1437	6653
1	1446	6654
1	1458	6655
1	1472	6656
1	1482	6657
1	1492	6658
1	1500	6659
1	1551	6700
1	1556	6701
1	1558	6702
1	1563	6703
1	1568	6704
1	1572	6705
1	1568	6706
1	1556	6707
1	1535	6708
1	1513	6709
1	1492	6710
1	1472	6711
1	1458	6712
1	1446	6713
1	1433	6714
1	1424	6715
1	1423	6716
1	1427	6717
1	1441	6718
1	1459	6719
1	1501	6660
1	1499	6661
1	1497	6662
1	1485	6663
1	1476	6664
1	1471	6665
1	1463	6666
1	1463	6667
1	1458	6668
1	1452	6669
1	1450	6670
1	1450	6671
1	1448	6672
1	1440	6673
1	1434	6674
1	1427	6675
1	1428	6676
1	1441	6677
1	1454	6678
1	1476	6679
1	1503	6680
1	1527	6681
1	1553	6682
1	1566	6683
1	1566	6684
1	1555	6685
1	1543	6686
1	1521	6687
1	1494	6688
1	1472	6689
1	1454	6690
1	1451	6691
1	1458	6692
1	1463	6693
1	1476	6694
1	1487	6695
1	1497	6696
1	1517	6697
1	1530	6698
1	1543	6699
1	1478	6720
1	1501	6721
1	1517	6722
1	1521	6723
1	1520	6724
1	1512	6725
1	1505	6726
1	1501	6727
1	1490	6728
1	1476	6729
1	1484	6730
1	1494	6731
1	1503	6732
1	1518	6733
1	1530	6734
1	1530	6735
1	1529	6736
1	1530	6737
1	1529	6738
1	1527	6739
1	1527	6740
1	1528	6741
1	1533	6742
1	1529	6743
1	1530	6744
1	1529	6745
1	1530	6746
1	1531	6747
1	1530	6748
1	1526	6749
1	1521	6750
1	1513	6751
1	1505	6752
1	1494	6753
1	1490	6754
1	1489	6755
1	1486	6756
1	1494	6757
1	1510	6758
1	1526	6759
1	1581	6780
1	1611	6781
1	1634	6782
1	1646	6783
1	1658	6784
1	1665	6785
1	1673	6786
1	1686	6787
1	1697	6788
1	1703	6789
1	1710	6790
1	1710	6791
1	1711	6792
1	1714	6793
1	1718	6794
1	1717	6795
1	1709	6796
1	1693	6797
1	1675	6798
1	1660	6799
1	1539	6760
1	1554	6761
1	1570	6762
1	1581	6763
1	1584	6764
1	1584	6765
1	1579	6766
1	1566	6767
1	1543	6768
1	1523	6769
1	1503	6770
1	1490	6771
1	1489	6772
1	1486	6773
1	1482	6774
1	1482	6775
1	1485	6776
1	1499	6777
1	1519	6778
1	1551	6779
1	1644	6800
1	1628	6801
1	1617	6802
1	1606	6803
1	1593	6804
1	1591	6805
1	1592	6806
1	1597	6807
1	1603	6808
1	1607	6809
1	1606	6810
1	1601	6811
1	1593	6812
1	1581	6813
1	1574	6814
1	1567	6815
1	1562	6816
1	1564	6817
1	1553	6818
1	1542	6819
1	1536	6820
1	1530	6821
1	1530	6822
1	1532	6823
1	1521	6824
1	1520	6825
1	1514	6826
1	1505	6827
1	1499	6828
1	1489	6829
1	1481	6830
1	1476	6831
1	1487	6832
1	1482	6833
1	1481	6834
1	1500	6835
1	1521	6836
1	1553	6837
1	1580	6838
1	1602	6839
1	1615	6840
1	1622	6841
1	1631	6842
1	1626	6843
1	1629	6844
1	1631	6845
1	1627	6846
1	1622	6847
1	1618	6848
1	1600	6849
1	1582	6850
1	1564	6851
1	1547	6852
1	1528	6853
1	1508	6854
1	1492	6855
1	1487	6856
1	1491	6857
1	1503	6858
1	1521	6859
1	1540	6860
1	1555	6861
1	1579	6862
1	1593	6863
1	1603	6864
1	1608	6865
1	1612	6866
1	1616	6867
1	1607	6868
1	1593	6869
1	1567	6870
1	1539	6871
1	1514	6872
1	1490	6873
1	1477	6874
1	1476	6875
1	1481	6876
1	1495	6877
1	1503	6878
1	1517	6879
1	1532	6880
1	1554	6881
1	1573	6882
1	1593	6883
1	1607	6884
1	1616	6885
1	1626	6886
1	1629	6887
1	1611	6888
1	1593	6889
1	1567	6890
1	1539	6891
1	1529	6892
1	1516	6893
1	1504	6894
1	1501	6895
1	1499	6896
1	1503	6897
1	1503	6898
1	1513	6899
1	1521	6900
1	1533	6901
1	1539	6902
1	1533	6903
1	1529	6904
1	1513	6905
1	1488	6906
1	1458	6907
1	1422	6908
1	1375	6909
1	1343	6910
1	1318	6911
1	1301	6912
1	1305	6913
1	1324	6914
1	1355	6915
1	1399	6916
1	1446	6917
1	1489	6918
1	1533	6919
1	1581	6920
1	1625	6921
1	1675	6922
1	1728	6923
1	1770	6924
1	1819	6925
1	1879	6926
1	1926	6927
1	1976	6928
1	2022	6929
1	2079	6930
1	2137	6931
1	2186	6932
1	2242	6933
1	2290	6934
1	2350	6935
1	2405	6936
1	2467	6937
1	2509	6938
1	2545	6939
1	2576	6940
1	2595	6941
1	2609	6942
1	2606	6943
1	2595	6944
1	2571	6945
1	2534	6946
1	2486	6947
1	2407	6948
1	2324	6949
1	2236	6950
1	2146	6951
1	2068	6952
1	2007	6953
1	1951	6954
1	1913	6955
1	1882	6956
1	1858	6957
1	1843	6958
1	1831	6959
1	1817	6960
1	1795	6961
1	1787	6962
1	1769	6963
1	1756	6964
1	1744	6965
1	1729	6966
1	1712	6967
1	1686	6968
1	1655	6969
1	1625	6970
1	1598	6971
1	1572	6972
1	1555	6973
1	1543	6974
1	1538	6975
1	1535	6976
1	1533	6977
1	1529	6978
1	1533	6979
1	1547	6980
1	1557	6981
1	1577	6982
1	1582	6983
1	1594	6984
1	1607	6985
1	1611	6986
1	1607	6987
1	1595	6988
1	1580	6989
1	1563	6990
1	1555	6991
1	1550	6992
1	1544	6993
1	1555	6994
1	1577	6995
1	1598	6996
1	1633	6997
1	1659	6998
1	1683	6999
1	1700	7000
1	1712	7001
1	1716	7002
1	1717	7003
1	1719	7004
1	1721	7005
1	1715	7006
1	1710	7007
1	1692	7008
1	1678	7009
1	1664	7010
1	1650	7011
1	1647	7012
1	1638	7013
1	1632	7014
1	1625	7015
1	1620	7016
1	1618	7017
1	1618	7018
1	1618	7019
1	1620	7020
1	1621	7021
1	1625	7022
1	1620	7023
1	1621	7024
1	1623	7025
1	1628	7026
1	1634	7027
1	1634	7028
1	1631	7029
1	1624	7030
1	1625	7031
1	1618	7032
1	1612	7033
1	1610	7034
1	1607	7035
1	1607	7036
1	1612	7037
1	1625	7038
1	1638	7039
1	1655	7040
1	1661	7041
1	1673	7042
1	1678	7043
1	1687	7044
1	1688	7045
1	1692	7046
1	1687	7047
1	1679	7048
1	1663	7049
1	1652	7050
1	1639	7051
1	1635	7052
1	1634	7053
1	1638	7054
1	1645	7055
1	1647	7056
1	1645	7057
1	1646	7058
1	1647	7059
1	1727	7080
1	1738	7081
1	1751	7082
1	1760	7083
1	1769	7084
1	1786	7085
1	1792	7086
1	1808	7087
1	1803	7088
1	1793	7089
1	1782	7090
1	1766	7091
1	1760	7092
1	1760	7093
1	1765	7094
1	1772	7095
1	1782	7096
1	1788	7097
1	1785	7098
1	1776	7099
1	1660	7060
1	1674	7061
1	1695	7062
1	1708	7063
1	1724	7064
1	1731	7065
1	1733	7066
1	1726	7067
1	1713	7068
1	1697	7069
1	1682	7070
1	1663	7071
1	1661	7072
1	1664	7073
1	1678	7074
1	1688	7075
1	1701	7076
1	1709	7077
1	1712	7078
1	1717	7079
1	1765	7100
1	1763	7101
1	1767	7102
1	1775	7103
1	1789	7104
1	1811	7105
1	1830	7106
1	1838	7107
1	1837	7108
1	1829	7109
1	1823	7110
1	1823	7111
1	1820	7112
1	1813	7113
1	1793	7114
1	1778	7115
1	1767	7116
1	1769	7117
1	1773	7118
1	1777	7119
1	1780	7120
1	1786	7121
1	1793	7122
1	1803	7123
1	1802	7124
1	1803	7125
1	1803	7126
1	1799	7127
1	1791	7128
1	1780	7129
1	1768	7130
1	1759	7131
1	1751	7132
1	1750	7133
1	1751	7134
1	1752	7135
1	1759	7136
1	1775	7137
1	1783	7138
1	1791	7139
1	1800	7140
1	1811	7141
1	1816	7142
1	1811	7143
1	1810	7144
1	1803	7145
1	1791	7146
1	1778	7147
1	1765	7148
1	1746	7149
1	1726	7150
1	1707	7151
1	1688	7152
1	1677	7153
1	1669	7154
1	1665	7155
1	1673	7156
1	1686	7157
1	1700	7158
1	1717	7159
1	1737	7160
1	1750	7161
1	1769	7162
1	1786	7163
1	1801	7164
1	1814	7165
1	1819	7166
1	1821	7167
1	1818	7168
1	1817	7169
1	1816	7170
1	1815	7171
1	1813	7172
1	1794	7173
1	1787	7174
1	1772	7175
1	1756	7176
1	1749	7177
1	1738	7178
1	1722	7179
1	1707	7180
1	1695	7181
1	1694	7182
1	1698	7183
1	1704	7184
1	1712	7185
1	1719	7186
1	1725	7187
1	1721	7188
1	1716	7189
1	1712	7190
1	1711	7191
1	1712	7192
1	1711	7193
1	1701	7194
1	1691	7195
1	1683	7196
1	1679	7197
1	1686	7198
1	1700	7199
1	1719	7200
1	1738	7201
1	1756	7202
1	1764	7203
1	1772	7204
1	1769	7205
1	1760	7206
1	1747	7207
1	1726	7208
1	1707	7209
1	1686	7210
1	1661	7211
1	1643	7212
1	1629	7213
1	1620	7214
1	1613	7215
1	1613	7216
1	1625	7217
1	1634	7218
1	1647	7219
1	1662	7220
1	1684	7221
1	1710	7222
1	1724	7223
1	1731	7224
1	1737	7225
1	1742	7226
1	1742	7227
1	1738	7228
1	1718	7229
1	1705	7230
1	1693	7231
1	1685	7232
1	1674	7233
1	1671	7234
1	1674	7235
1	1681	7236
1	1690	7237
1	1710	7238
1	1729	7239
1	1750	7240
1	1770	7241
1	1777	7242
1	1769	7243
1	1756	7244
1	1744	7245
1	1737	7246
1	1726	7247
1	1711	7248
1	1703	7249
1	1697	7250
1	1687	7251
1	1679	7252
1	1680	7253
1	1678	7254
1	1674	7255
1	1670	7256
1	1665	7257
1	1669	7258
1	1674	7259
1	1733	7280
1	1737	7281
1	1749	7282
1	1754	7283
1	1755	7284
1	1752	7285
1	1746	7286
1	1737	7287
1	1724	7288
1	1712	7289
1	1705	7290
1	1697	7291
1	1694	7292
1	1691	7293
1	1690	7294
1	1688	7295
1	1687	7296
1	1698	7297
1	1708	7298
1	1715	7299
1	1683	7260
1	1692	7261
1	1710	7262
1	1716	7263
1	1728	7264
1	1733	7265
1	1729	7266
1	1728	7267
1	1717	7268
1	1710	7269
1	1701	7270
1	1701	7271
1	1708	7272
1	1713	7273
1	1714	7274
1	1714	7275
1	1713	7276
1	1720	7277
1	1720	7278
1	1725	7279
1	1723	7300
1	1724	7301
1	1719	7302
1	1717	7303
1	1713	7304
1	1712	7305
1	1711	7306
1	1705	7307
1	1686	7308
1	1665	7309
1	1657	7310
1	1652	7311
1	1660	7312
1	1674	7313
1	1694	7314
1	1719	7315
1	1750	7316
1	1783	7317
1	1816	7318
1	1841	7319
1	1737	7340
1	1750	7341
1	1761	7342
1	1765	7343
1	1773	7344
1	1772	7345
1	1769	7346
1	1769	7347
1	1772	7348
1	1779	7349
1	1780	7350
1	1782	7351
1	1775	7352
1	1767	7353
1	1764	7354
1	1772	7355
1	1777	7356
1	1786	7357
1	1801	7358
1	1813	7359
1	1856	7340
1	1857	7341
1	1854	7342
1	1836	7343
1	1823	7344
1	1809	7345
1	1790	7346
1	1767	7347
1	1739	7348
1	1710	7349
1	1686	7350
1	1661	7351
1	1636	7352
1	1633	7353
1	1631	7354
1	1635	7355
1	1650	7356
1	1674	7357
1	1698	7358
1	1716	7359
1	1816	7360
1	1816	7361
1	1814	7362
1	1802	7363
1	1793	7364
1	1787	7365
1	1777	7366
1	1766	7367
1	1751	7368
1	1737	7369
1	1712	7370
1	1688	7371
1	1675	7372
1	1666	7373
1	1660	7374
1	1660	7375
1	1670	7376
1	1688	7377
1	1715	7378
1	1744	7379
1	1769	7380
1	1788	7381
1	1791	7382
1	1795	7383
1	1800	7384
1	1803	7385
1	1808	7386
1	1803	7387
1	1783	7388
1	1759	7389
1	1738	7390
1	1721	7391
1	1710	7392
1	1703	7393
1	1700	7394
1	1698	7395
1	1700	7396
1	1712	7397
1	1728	7398
1	1746	7399
1	1763	7400
1	1778	7401
1	1791	7402
1	1809	7403
1	1812	7404
1	1812	7405
1	1803	7406
1	1791	7407
1	1776	7408
1	1760	7409
1	1751	7410
1	1744	7411
1	1741	7412
1	1737	7413
1	1738	7414
1	1743	7415
1	1748	7416
1	1760	7417
1	1762	7418
1	1762	7419
1	1760	7420
1	1757	7421
1	1754	7422
1	1751	7423
1	1746	7424
1	1741	7425
1	1737	7426
1	1730	7427
1	1731	7428
1	1738	7429
1	1744	7430
1	1748	7431
1	1751	7432
1	1752	7433
1	1754	7434
1	1755	7435
1	1766	7436
1	1778	7437
1	1792	7438
1	1814	7439
1	1825	7440
1	1833	7441
1	1843	7442
1	1845	7443
1	1855	7444
1	1865	7445
1	1864	7446
1	1854	7447
1	1843	7448
1	1821	7449
1	1796	7450
1	1777	7451
1	1756	7452
1	1738	7453
1	1724	7454
1	1719	7455
1	1719	7456
1	1728	7457
1	1737	7458
1	1751	7459
1	1765	7460
1	1780	7461
1	1796	7462
1	1809	7463
1	1814	7464
1	1815	7465
1	1814	7466
1	1803	7467
1	1798	7468
1	1796	7469
1	1793	7470
1	1793	7471
1	1798	7472
1	1798	7473
1	1811	7474
1	1817	7475
1	1818	7476
1	1829	7477
1	1833	7478
1	1834	7479
1	1838	7480
1	1836	7481
1	1837	7482
1	1835	7483
1	1835	7484
1	1832	7485
1	1832	7486
1	1830	7487
1	1809	7488
1	1789	7489
1	1764	7490
1	1743	7491
1	1731	7492
1	1708	7493
1	1688	7494
1	1677	7495
1	1679	7496
1	1687	7497
1	1702	7498
1	1723	7499
1	1751	7500
1	1781	7501
1	1815	7502
1	1836	7503
1	1861	7504
1	1890	7505
1	1918	7506
1	1939	7507
1	1952	7508
1	1950	7509
1	1948	7510
1	1945	7511
1	1944	7512
1	1940	7513
1	1935	7514
1	1927	7515
1	1922	7516
1	1919	7517
1	1909	7518
1	1907	7519
1	1907	7520
1	1909	7521
1	1922	7522
1	1929	7523
1	1936	7524
1	1931	7525
1	1931	7526
1	1914	7527
1	1905	7528
1	1895	7529
1	1881	7530
1	1869	7531
1	1856	7532
1	1844	7533
1	1842	7534
1	1830	7535
1	1824	7536
1	1822	7537
1	1818	7538
1	1817	7539
1	1814	7540
1	1818	7541
1	1823	7542
1	1832	7543
1	1841	7544
1	1846	7545
1	1845	7546
1	1843	7547
1	1828	7548
1	1816	7549
1	1799	7550
1	1791	7551
1	1791	7552
1	1800	7553
1	1811	7554
1	1817	7555
1	1818	7556
1	1826	7557
1	1836	7558
1	1845	7559
1	1847	7560
1	1843	7561
1	1834	7562
1	1817	7563
1	1802	7564
1	1791	7565
1	1789	7566
1	1787	7567
1	1782	7568
1	1764	7569
1	1751	7570
1	1737	7571
1	1731	7572
1	1728	7573
1	1729	7574
1	1730	7575
1	1733	7576
1	1739	7577
1	1751	7578
1	1767	7579
1	1791	7580
1	1809	7581
1	1830	7582
1	1843	7583
1	1858	7584
1	1882	7585
1	1903	7586
1	1913	7587
1	1908	7588
1	1890	7589
1	1863	7590
1	1830	7591
1	1791	7592
1	1756	7593
1	1733	7594
1	1715	7595
1	1712	7596
1	1714	7597
1	1718	7598
1	1733	7599
1	1748	7600
1	1764	7601
1	1780	7602
1	1791	7603
1	1800	7604
1	1803	7605
1	1800	7606
1	1787	7607
1	1769	7608
1	1757	7609
1	1746	7610
1	1738	7611
1	1738	7612
1	1751	7613
1	1754	7614
1	1763	7615
1	1774	7616
1	1791	7617
1	1798	7618
1	1802	7619
1	1801	7620
1	1791	7621
1	1791	7622
1	1783	7623
1	1778	7624
1	1769	7625
1	1755	7626
1	1739	7627
1	1717	7628
1	1697	7629
1	1674	7630
1	1660	7631
1	1645	7632
1	1636	7633
1	1634	7634
1	1634	7635
1	1639	7636
1	1647	7637
1	1651	7638
1	1657	7639
1	1662	7640
1	1672	7641
1	1692	7642
1	1723	7643
1	1751	7644
1	1775	7645
1	1785	7646
1	1780	7647
1	1770	7648
1	1764	7649
1	1764	7650
1	1769	7651
1	1792	7652
1	1822	7653
1	1856	7654
1	1899	7655
1	1953	7656
1	2012	7657
1	2076	7658
1	2138	7659
1	2423	7680
1	2366	7681
1	2300	7682
1	2237	7683
1	2176	7684
1	2132	7685
1	2100	7686
1	2075	7687
1	2043	7688
1	2015	7689
1	1985	7690
1	1959	7691
1	1940	7692
1	1922	7693
1	1911	7694
1	1910	7695
1	1917	7696
1	1922	7697
1	1914	7698
1	1911	7699
1	2205	7660
1	2275	7661
1	2350	7662
1	2428	7663
1	2506	7664
1	2570	7665
1	2628	7666
1	2669	7667
1	2699	7668
1	2724	7669
1	2744	7670
1	2754	7671
1	2763	7672
1	2755	7673
1	2732	7674
1	2696	7675
1	2646	7676
1	2591	7677
1	2535	7678
1	2486	7679
1	1896	7700
1	1877	7701
1	1850	7702
1	1832	7703
1	1808	7704
1	1782	7705
1	1762	7706
1	1739	7707
1	1723	7708
1	1707	7709
1	1695	7710
1	1690	7711
1	1688	7712
1	1689	7713
1	1694	7714
1	1700	7715
1	1703	7716
1	1711	7717
1	1716	7718
1	1728	7719
1	1740	7720
1	1756	7721
1	1774	7722
1	1792	7723
1	1813	7724
1	1816	7725
1	1817	7726
1	1818	7727
1	1817	7728
1	1812	7729
1	1800	7730
1	1790	7731
1	1778	7732
1	1769	7733
1	1764	7734
1	1760	7735
1	1769	7736
1	1780	7737
1	1791	7738
1	1800	7739
1	1817	7740
1	1829	7741
1	1838	7742
1	1835	7743
1	1833	7744
1	1828	7745
1	1817	7746
1	1795	7747
1	1785	7748
1	1772	7749
1	1766	7750
1	1764	7751
1	1764	7752
1	1764	7753
1	1764	7754
1	1764	7755
1	1764	7756
1	1770	7757
1	1770	7758
1	1778	7759
1	1782	7760
1	1788	7761
1	1796	7762
1	1801	7763
1	1810	7764
1	1809	7765
1	1814	7766
1	1816	7767
1	1814	7768
1	1801	7769
1	1791	7770
1	1787	7771
1	1780	7772
1	1765	7773
1	1755	7774
1	1747	7775
1	1742	7776
1	1754	7777
1	1764	7778
1	1782	7779
1	1802	7780
1	1827	7781
1	1845	7782
1	1856	7783
1	1868	7784
1	1869	7785
1	1863	7786
1	1854	7787
1	1836	7788
1	1816	7789
1	1793	7790
1	1779	7791
1	1783	7792
1	1791	7793
1	1813	7794
1	1827	7795
1	1846	7796
1	1869	7797
1	1891	7798
1	1908	7799
1	1916	7800
1	1913	7801
1	1907	7802
1	1895	7803
1	1886	7804
1	1885	7805
1	1881	7806
1	1873	7807
1	1869	7808
1	1859	7809
1	1850	7810
1	1843	7811
1	1841	7812
1	1841	7813
1	1845	7814
1	1856	7815
1	1869	7816
1	1881	7817
1	1885	7818
1	1890	7819
1	1893	7820
1	1888	7821
1	1893	7822
1	1890	7823
1	1893	7824
1	1890	7825
1	1895	7826
1	1881	7827
1	1869	7828
1	1859	7829
1	1848	7830
1	1841	7831
1	1835	7832
1	1839	7833
1	1842	7834
1	1850	7835
1	1856	7836
1	1864	7837
1	1873	7838
1	1891	7839
1	1907	7840
1	1927	7841
1	1944	7842
1	1955	7843
1	1966	7844
1	1972	7845
1	1974	7846
1	1967	7847
1	1946	7848
1	1920	7849
1	1893	7850
1	1867	7851
1	1842	7852
1	1825	7853
1	1803	7854
1	1791	7855
1	1791	7856
1	1793	7857
1	1811	7858
1	1832	7859
1	1863	7880
1	1869	7881
1	1885	7882
1	1890	7883
1	1895	7884
1	1895	7885
1	1901	7886
1	1898	7887
1	1890	7888
1	1874	7889
1	1860	7890
1	1843	7891
1	1831	7892
1	1813	7893
1	1798	7894
1	1791	7895
1	1791	7896
1	1803	7897
1	1817	7898
1	1827	7899
1	1858	7860
1	1890	7861
1	1921	7862
1	1947	7863
1	1973	7864
1	1993	7865
1	2001	7866
1	2003	7867
1	1985	7868
1	1957	7869
1	1927	7870
1	1903	7871
1	1880	7872
1	1864	7873
1	1855	7874
1	1847	7875
1	1843	7876
1	1845	7877
1	1845	7878
1	1854	7879
1	1839	7900
1	1843	7901
1	1841	7902
1	1839	7903
1	1839	7904
1	1837	7905
1	1831	7906
1	1822	7907
1	1808	7908
1	1791	7909
1	1778	7910
1	1764	7911
1	1752	7912
1	1750	7913
1	1741	7914
1	1737	7915
1	1742	7916
1	1755	7917
1	1773	7918
1	1795	7919
1	1817	7920
1	1824	7921
1	1836	7922
1	1841	7923
1	1845	7924
1	1852	7925
1	1853	7926
1	1854	7927
1	1835	7928
1	1821	7929
1	1803	7930
1	1796	7931
1	1781	7932
1	1763	7933
1	1749	7934
1	1747	7935
1	1749	7936
1	1761	7937
1	1764	7938
1	1773	7939
1	1785	7940
1	1790	7941
1	1791	7942
1	1803	7943
1	1811	7944
1	1809	7945
1	1797	7946
1	1788	7947
1	1772	7948
1	1751	7949
1	1729	7950
1	1715	7951
1	1712	7952
1	1710	7953
1	1714	7954
1	1727	7955
1	1741	7956
1	1761	7957
1	1783	7958
1	1798	7959
1	1816	7960
1	1819	7961
1	1821	7962
1	1821	7963
1	1821	7964
1	1818	7965
1	1817	7966
1	1808	7967
1	1787	7968
1	1773	7969
1	1764	7970
1	1751	7971
1	1741	7972
1	1731	7973
1	1719	7974
1	1710	7975
1	1703	7976
1	1705	7977
1	1712	7978
1	1725	7979
1	1738	7980
1	1751	7981
1	1757	7982
1	1753	7983
1	1754	7984
1	1755	7985
1	1757	7986
1	1764	7987
1	1764	7988
1	1761	7989
1	1767	7990
1	1777	7991
1	1789	7992
1	1799	7993
1	1809	7994
1	1813	7995
1	1812	7996
1	1815	7997
1	1812	7998
1	1808	7999
1	1801	8000
1	1796	8000
1	1788	8002
1	1782	8003
1	1769	8004
1	1762	8005
1	1755	8006
1	1749	8007
1	1741	8008
1	1735	8009
1	1734	8010
1	1738	8011
1	1742	8012
1	1749	8013
1	1759	8013
1	1775	8015
1	1791	8016
1	1821	8016
1	1835	8018
1	1843	8019
1	1796	8040
1	1817	8041
1	1832	8042
1	1838	8043
1	1841	8044
1	1835	8045
1	1825	8045
1	1813	8047
1	1800	8048
1	1785	8048
1	1772	8050
1	1764	8051
1	1760	8052
1	1760	8053
1	1755	8054
1	1751	8055
1	1744	8056
1	1744	8057
1	1739	8058
1	1741	8059
1	1847	8020
1	1854	8021
1	1856	8022
1	1860	8023
1	1863	8024
1	1856	8025
1	1851	8026
1	1843	8027
1	1825	8028
1	1796	8029
1	1767	8029
1	1737	8031
1	1711	8032
1	1690	8032
1	1696	8034
1	1700	8035
1	1717	8036
1	1738	8037
1	1760	8038
1	1779	8039
1	1753	8060
1	1768	8061
1	1791	8061
1	1809	8063
1	1820	8064
1	1829	8064
1	1836	8066
1	1834	8067
1	1827	8068
1	1817	8069
1	1815	8070
1	1808	8071
1	1802	8072
1	1795	8073
1	1799	8074
1	1803	8074
1	1811	8076
1	1819	8077
1	1826	8077
1	1832	8079
1	1835	8080
1	1832	8080
1	1821	8082
1	1810	8083
1	1796	8084
1	1790	8085
1	1782	8086
1	1778	8087
1	1763	8088
1	1743	8089
1	1733	8090
1	1720	8090
1	1724	8092
1	1721	8093
1	1717	8093
1	1719	8095
1	1724	8096
1	1742	8096
1	1764	8098
1	1790	8099
1	1817	8100
1	1841	8101
1	1861	8102
1	1874	8103
1	1890	8104
1	1896	8105
1	1898	8106
1	1898	8106
1	1887	8108
1	1869	8109
1	1854	8109
1	1836	8111
1	1817	8112
1	1792	8113
1	1770	8114
1	1751	8115
1	1740	8116
1	1736	8117
1	1721	8118
1	1719	8119
1	1731	8120
1	1742	8121
1	1762	8122
1	1769	8122
1	1781	8124
1	1786	8125
1	1803	8125
1	1809	8127
1	1803	8128
1	1800	8129
1	1789	8130
1	1772	8131
1	1759	8132
1	1746	8133
1	1731	8134
1	1720	8135
1	1723	8136
1	1733	8137
1	1748	8138
1	1764	8138
1	1777	8140
1	1791	8141
1	1796	8141
1	1803	8143
1	1815	8144
1	1821	8145
1	1821	8146
1	1817	8147
1	1794	8148
1	1782	8149
1	1769	8150
1	1760	8151
1	1751	8152
1	1749	8153
1	1743	8154
1	1738	8154
1	1744	8156
1	1755	8157
1	1767	8157
1	1776	8159
1	1780	8160
1	1775	8161
1	1772	8162
1	1765	8163
1	1767	8164
1	1773	8165
1	1775	8166
1	1782	8167
1	1784	8168
1	1779	8169
1	1773	8170
1	1764	8170
1	1755	8172
1	1751	8173
1	1752	8173
1	1757	8175
1	1767	8176
1	1782	8177
1	1791	8178
1	1801	8179
1	1814	8180
1	1822	8181
1	1825	8182
1	1832	8183
1	1827	8184
1	1819	8185
1	1816	8186
1	1807	8186
1	1791	8188
1	1775	8189
1	1764	8189
1	1757	8191
1	1755	8192
1	1751	8193
1	1756	8194
1	1765	8195
1	1783	8196
1	1809	8197
1	1827	8198
1	1843	8199
1	1856	8200
1	1868	8201
1	1869	8202
1	1870	8203
1	1869	8204
1	1868	8205
1	1857	8206
1	1845	8207
1	1826	8208
1	1817	8209
1	1814	8210
1	1822	8211
1	1836	8212
1	1860	8213
1	1881	8214
1	1901	8215
1	1926	8216
1	1949	8217
1	1968	8218
1	1982	8219
1	1988	8220
1	1989	8221
1	1988	8222
1	1975	8223
1	1973	8224
1	1961	8225
1	1940	8226
1	1916	8227
1	1886	8228
1	1854	8229
1	1816	8230
1	1785	8231
1	1756	8232
1	1734	8233
1	1716	8234
1	1712	8235
1	1713	8236
1	1726	8237
1	1737	8238
1	1749	8239
1	1777	8260
1	1792	8261
1	1811	8262
1	1821	8263
1	1827	8264
1	1831	8265
1	1821	8266
1	1796	8267
1	1764	8268
1	1738	8269
1	1714	8270
1	1695	8271
1	1681	8272
1	1676	8273
1	1675	8274
1	1682	8275
1	1698	8276
1	1723	8277
1	1750	8278
1	1769	8279
1	1760	8240
1	1775	8241
1	1791	8242
1	1817	8243
1	1823	8244
1	1827	8245
1	1819	8246
1	1813	8247
1	1791	8248
1	1770	8249
1	1754	8250
1	1738	8251
1	1729	8252
1	1719	8253
1	1715	8254
1	1715	8255
1	1721	8256
1	1729	8257
1	1747	8258
1	1762	8259
1	1786	8280
1	1793	8281
1	1802	8282
1	1803	8283
1	1808	8284
1	1801	8285
1	1791	8286
1	1777	8287
1	1765	8288
1	1752	8289
1	1743	8290
1	1738	8291
1	1733	8292
1	1726	8293
1	1724	8294
1	1722	8295
1	1729	8296
1	1744	8297
1	1756	8298
1	1770	8299
1	1783	8300
1	1796	8301
1	1817	8302
1	1827	8303
1	1821	8304
1	1813	8305
1	1792	8306
1	1773	8307
1	1751	8308
1	1721	8309
1	1692	8310
1	1667	8311
1	1657	8312
1	1649	8313
1	1660	8314
1	1672	8315
1	1688	8316
1	1719	8317
1	1738	8318
1	1756	8319
1	1769	8320
1	1773	8321
1	1765	8322
1	1751	8323
1	1729	8324
1	1693	8325
1	1654	8326
1	1611	8327
1	1571	8328
1	1541	8329
1	1518	8330
1	1503	8331
1	1499	8332
1	1494	8333
1	1504	8334
1	1520	8335
1	1544	8336
1	1569	8337
1	1600	8338
1	1633	8339
1	1945	8380
1	1911	8381
1	1888	8382
1	1862	8383
1	1841	8384
1	1817	8385
1	1782	8386
1	1746	8387
1	1706	8388
1	1668	8389
1	1644	8390
1	1628	8391
1	1610	8392
1	1606	8393
1	1595	8394
1	1598	8395
1	1608	8396
1	1634	8397
1	1655	8398
1	1677	8399
1	2548	8360
1	2606	8361
1	2668	8362
1	2727	8363
1	2769	8364
1	2790	8365
1	2785	8366
1	2751	8367
1	2695	8368
1	2622	8369
1	2539	8370
1	2461	8371
1	2379	8372
1	2295	8373
1	2232	8374
1	2166	8375
1	2110	8376
1	2068	8377
1	2026	8378
1	1984	8379
1	1660	8340
1	1688	8341
1	1716	8342
1	1738	8343
1	1767	8344
1	1811	8345
1	1846	8346
1	1884	8347
1	1926	8348
1	1960	8349
1	2000	8350
1	2039	8351
1	2081	8352
1	2129	8353
1	2175	8354
1	2235	8355
1	2296	8356
1	2367	8357
1	2428	8358
1	2494	8359
1	1691	8400
1	1700	8401
1	1698	8402
1	1694	8403
1	1692	8404
1	1688	8405
1	1686	8406
1	1680	8407
1	1686	8408
1	1688	8409
1	1694	8410
1	1689	8411
1	1686	8412
1	1685	8413
1	1683	8414
1	1685	8415
1	1686	8416
1	1691	8417
1	1690	8418
1	1697	8419
1	1708	8420
1	1720	8421
1	1730	8422
1	1739	8423
1	1734	8424
1	1728	8425
1	1724	8426
1	1706	8427
1	1700	8428
1	1689	8429
1	1688	8430
1	1690	8431
1	1688	8432
1	1692	8433
1	1700	8434
1	1704	8435
1	1712	8436
1	1728	8437
1	1737	8438
1	1751	8439
1	1685	8460
1	1695	8461
1	1705	8462
1	1708	8463
1	1711	8464
1	1714	8465
1	1719	8466
1	1718	8467
1	1718	8468
1	1712	8469
1	1704	8470
1	1699	8471
1	1691	8472
1	1686	8473
1	1686	8474
1	1695	8475
1	1706	8476
1	1724	8477
1	1738	8478
1	1764	8479
1	1760	8440
1	1779	8441
1	1789	8442
1	1791	8443
1	1795	8444
1	1791	8445
1	1788	8446
1	1778	8447
1	1760	8448
1	1738	8449
1	1721	8450
1	1707	8451
1	1695	8452
1	1688	8453
1	1679	8454
1	1669	8455
1	1660	8456
1	1657	8457
1	1660	8458
1	1669	8459
1	1787	8480
1	1803	8481
1	1812	8482
1	1816	8483
1	1809	8484
1	1791	8485
1	1780	8486
1	1765	8487
1	1755	8488
1	1740	8489
1	1736	8490
1	1729	8491
1	1728	8492
1	1720	8493
1	1723	8494
1	1728	8495
1	1739	8496
1	1755	8497
1	1782	8498
1	1803	8499
1	1830	8500
1	1854	8501
1	1875	8502
1	1901	8503
1	1922	8504
1	1935	8505
1	1942	8506
1	1933	8507
1	1908	8508
1	1890	8509
1	1865	8510
1	1832	8511
1	1791	8512
1	1769	8513
1	1744	8514
1	1737	8515
1	1734	8516
1	1742	8517
1	1755	8518
1	1773	8519
1	1808	8540
1	1803	8541
1	1803	8542
1	1818	8543
1	1819	8544
1	1821	8545
1	1818	8546
1	1817	8547
1	1811	8548
1	1802	8549
1	1795	8550
1	1790	8551
1	1788	8552
1	1782	8553
1	1787	8554
1	1795	8555
1	1808	8556
1	1818	8557
1	1828	8558
1	1826	8559
1	1792	8520
1	1819	8521
1	1841	8522
1	1847	8523
1	1861	8524
1	1871	8525
1	1881	8526
1	1882	8527
1	1877	8528
1	1873	8529
1	1868	8530
1	1867	8531
1	1860	8532
1	1854	8533
1	1845	8534
1	1842	8535
1	1837	8536
1	1834	8537
1	1819	8538
1	1814	8539
1	1822	8560
1	1816	8561
1	1802	8562
1	1788	8563
1	1781	8564
1	1777	8565
1	1773	8566
1	1773	8567
1	1764	8568
1	1760	8569
1	1755	8570
1	1754	8571
1	1753	8572
1	1764	8573
1	1764	8574
1	1770	8575
1	1785	8576
1	1802	8577
1	1825	8578
1	1845	8579
1	1863	8580
1	1875	8581
1	1885	8582
1	1877	8583
1	1870	8584
1	1858	8585
1	1842	8586
1	1824	8587
1	1817	8588
1	1803	8589
1	1793	8590
1	1782	8591
1	1772	8592
1	1760	8593
1	1746	8594
1	1728	8595
1	1715	8596
1	1713	8597
1	1712	8598
1	1719	8599
1	1728	8600
1	1731	8601
1	1729	8602
1	1723	8603
1	1712	8604
1	1705	8605
1	1699	8606
1	1697	8607
1	1698	8608
1	1696	8609
1	1697	8610
1	1699	8611
1	1700	8612
1	1686	8613
1	1671	8614
1	1660	8615
1	1658	8616
1	1659	8617
1	1670	8618
1	1677	8619
1	1700	8640
1	1726	8641
1	1746	8642
1	1749	8643
1	1749	8644
1	1741	8645
1	1724	8646
1	1700	8647
1	1683	8648
1	1656	8649
1	1633	8650
1	1612	8651
1	1602	8652
1	1598	8653
1	1598	8654
1	1605	8655
1	1611	8656
1	1616	8657
1	1608	8658
1	1608	8659
1	1686	8620
1	1699	8621
1	1712	8622
1	1719	8623
1	1726	8624
1	1724	8625
1	1716	8626
1	1698	8627
1	1675	8628
1	1651	8629
1	1628	8630
1	1606	8631
1	1593	8632
1	1587	8633
1	1592	8634
1	1597	8635
1	1617	8636
1	1634	8637
1	1652	8638
1	1675	8639
1	1612	8660
1	1620	8661
1	1629	8662
1	1647	8663
1	1662	8664
1	1685	8665
1	1706	8666
1	1712	8667
1	1712	8668
1	1699	8669
1	1682	8670
1	1662	8671
1	1647	8672
1	1634	8673
1	1634	8674
1	1636	8675
1	1646	8676
1	1655	8677
1	1664	8678
1	1675	8679
1	1691	8680
1	1713	8681
1	1729	8682
1	1741	8683
1	1747	8684
1	1744	8685
1	1748	8686
1	1744	8687
1	1738	8688
1	1728	8689
1	1710	8690
1	1686	8691
1	1662	8692
1	1647	8693
1	1633	8694
1	1621	8695
1	1611	8696
1	1607	8697
1	1600	8698
1	1603	8699
1	1604	8700
1	1612	8701
1	1628	8702
1	1634	8703
1	1639	8704
1	1645	8705
1	1644	8706
1	1638	8707
1	1637	8708
1	1634	8709
1	1633	8710
1	1628	8711
1	1634	8712
1	1647	8713
1	1660	8714
1	1679	8715
1	1700	8716
1	1723	8717
1	1736	8718
1	1738	8719
1	1738	8720
1	1738	8721
1	1738	8722
1	1739	8723
1	1727	8724
1	1716	8725
1	1710	8726
1	1690	8727
1	1684	8728
1	1661	8729
1	1643	8730
1	1620	8731
1	1609	8732
1	1610	8733
1	1622	8734
1	1637	8735
1	1655	8736
1	1669	8737
1	1686	8738
1	1703	8739
1	1714	8740
1	1733	8741
1	1734	8742
1	1733	8743
1	1730	8744
1	1724	8745
1	1713	8746
1	1706	8747
1	1695	8748
1	1686	8749
1	1677	8750
1	1667	8751
1	1664	8752
1	1668	8753
1	1661	8754
1	1659	8755
1	1655	8756
1	1649	8757
1	1641	8758
1	1632	8759
1	1624	8760
1	1623	8761
1	1632	8762
1	1636	8763
1	1647	8764
1	1659	8765
1	1665	8766
1	1669	8767
1	1677	8768
1	1674	8769
1	1672	8770
1	1668	8771
1	1669	8772
1	1672	8773
1	1675	8774
1	1678	8775
1	1683	8776
1	1683	8777
1	1682	8778
1	1682	8779
1	1681	8780
1	1679	8781
1	1686	8782
1	1707	8783
1	1713	8784
1	1724	8785
1	1723	8786
1	1719	8787
1	1715	8788
1	1712	8789
1	1704	8790
1	1691	8791
1	1674	8792
1	1648	8793
1	1633	8794
1	1618	8795
1	1616	8796
1	1625	8797
1	1646	8798
1	1660	8799
1	1674	8800
1	1683	8801
1	1683	8802
1	1675	8803
1	1668	8804
1	1661	8805
1	1656	8806
1	1646	8807
1	1634	8808
1	1620	8809
1	1610	8810
1	1607	8811
1	1612	8812
1	1629	8813
1	1642	8814
1	1659	8815
1	1685	8816
1	1710	8817
1	1734	8818
1	1750	8819
1	1757	8820
1	1761	8821
1	1762	8822
1	1748	8823
1	1734	8824
1	1712	8825
1	1690	8826
1	1673	8827
1	1652	8828
1	1642	8829
1	1636	8830
1	1634	8831
1	1626	8832
1	1616	8833
1	1612	8834
1	1613	8835
1	1623	8836
1	1633	8837
1	1634	8838
1	1639	8839
1	1641	8840
1	1646	8841
1	1649	8842
1	1661	8843
1	1668	8844
1	1673	8845
1	1673	8846
1	1670	8847
1	1664	8848
1	1660	8849
1	1659	8850
1	1660	8851
1	1662	8852
1	1660	8853
1	1660	8854
1	1669	8855
1	1683	8856
1	1699	8857
1	1726	8858
1	1748	8859
1	1764	8860
1	1767	8861
1	1764	8862
1	1751	8863
1	1736	8864
1	1719	8865
1	1707	8866
1	1692	8867
1	1670	8868
1	1656	8869
1	1638	8870
1	1625	8871
1	1620	8872
1	1625	8873
1	1629	8874
1	1638	8875
1	1652	8876
1	1669	8877
1	1687	8878
1	1708	8879
1	1723	8880
1	1731	8881
1	1737	8882
1	1747	8883
1	1764	8884
1	1778	8885
1	1791	8886
1	1799	8887
1	1807	8888
1	1801	8889
1	1799	8890
1	1803	8891
1	1813	8892
1	1817	8893
1	1817	8894
1	1813	8895
1	1799	8896
1	1790	8897
1	1773	8898
1	1764	8899
1	1757	8900
1	1752	8901
1	1752	8902
1	1760	8903
1	1755	8904
1	1751	8905
1	1744	8906
1	1737	8907
1	1724	8908
1	1708	8909
1	1685	8910
1	1657	8911
1	1634	8912
1	1605	8913
1	1583	8914
1	1571	8915
1	1566	8916
1	1565	8917
1	1574	8918
1	1587	8919
1	1610	8920
1	1643	8921
1	1674	8922
1	1703	8923
1	1719	8924
1	1731	8925
1	1737	8926
1	1737	8927
1	1726	8928
1	1715	8929
1	1703	8930
1	1690	8931
1	1677	8932
1	1659	8933
1	1634	8934
1	1607	8935
1	1598	8936
1	1594	8937
1	1603	8938
1	1615	8939
1	1628	8940
1	1640	8941
1	1654	8942
1	1659	8943
1	1665	8944
1	1674	8945
1	1674	8946
1	1668	8947
1	1658	8948
1	1643	8949
1	1633	8950
1	1631	8951
1	1634	8952
1	1634	8953
1	1636	8954
1	1634	8955
1	1633	8956
1	1634	8957
1	1634	8958
1	1635	8959
1	1644	8960
1	1660	8961
1	1670	8962
1	1686	8963
1	1697	8964
1	1701	8965
1	1700	8966
1	1688	8967
1	1669	8968
1	1647	8969
1	1625	8970
1	1609	8971
1	1607	8972
1	1597	8973
1	1596	8974
1	1600	8975
1	1609	8976
1	1626	8977
1	1649	8978
1	1659	8979
1	1663	8980
1	1664	8981
1	1663	8982
1	1652	8983
1	1638	8984
1	1625	8985
1	1608	8986
1	1593	8987
1	1576	8988
1	1556	8989
1	1542	8990
1	1530	8991
1	1529	8992
1	1531	8993
1	1536	8994
1	1547	8995
1	1559	8996
1	1577	8997
1	1590	8998
1	1593	8999
1	1587	9000
1	1581	9001
1	1566	9002
1	1543	9003
1	1525	9004
1	1502	9005
1	1476	9006
1	1448	9007
1	1424	9008
1	1402	9009
1	1384	9010
1	1377	9011
1	1379	9012
1	1399	9013
1	1428	9014
1	1470	9015
1	1517	9016
1	1569	9017
1	1615	9018
1	1665	9019
1	1719	9020
1	1773	9021
1	1823	9022
1	1872	9023
1	1912	9024
1	1945	9025
1	1989	9026
1	2025	9027
1	2065	9028
1	2102	9029
1	2133	9030
1	2176	9031
1	2215	9032
1	2267	9033
1	2316	9034
1	2367	9035
1	2420	9036
1	2467	9037
1	2505	9038
1	2525	9039
1	1791	9060
1	1785	9061
1	1773	9062
1	1755	9063
1	1738	9064
1	1711	9065
1	1669	9066
1	1621	9067
1	1579	9068
1	1538	9069
1	1503	9070
1	1481	9071
1	1468	9072
1	1466	9073
1	1476	9074
1	1494	9075
1	1517	9076
1	1540	9077
1	1559	9078
1	1581	9079
1	2546	9040
1	2560	9041
1	2552	9042
1	2523	9043
1	2482	9044
1	2417	9045
1	2343	9046
1	2274	9047
1	2192	9048
1	2127	9049
1	2057	9050
1	1991	9051
1	1929	9052
1	1884	9053
1	1843	9054
1	1814	9055
1	1795	9056
1	1790	9057
1	1790	9058
1	1791	9059
1	1555	9100
1	1572	9101
1	1589	9102
1	1597	9103
1	1603	9104
1	1608	9105
1	1616	9106
1	1620	9107
1	1607	9108
1	1598	9109
1	1587	9110
1	1584	9111
1	1585	9112
1	1595	9113
1	1594	9114
1	1598	9115
1	1607	9116
1	1618	9117
1	1631	9118
1	1644	9119
1	1595	9080
1	1607	9081
1	1620	9082
1	1636	9083
1	1647	9084
1	1652	9085
1	1655	9086
1	1648	9087
1	1637	9088
1	1623	9089
1	1608	9090
1	1595	9091
1	1581	9092
1	1557	9093
1	1544	9094
1	1537	9095
1	1530	9096
1	1529	9097
1	1533	9098
1	1542	9099
1	1652	9120
1	1659	9121
1	1656	9122
1	1643	9123
1	1634	9124
1	1620	9125
1	1605	9126
1	1593	9127
1	1590	9128
1	1584	9129
1	1575	9130
1	1581	9131
1	1584	9132
1	1593	9133
1	1607	9134
1	1621	9135
1	1638	9136
1	1649	9137
1	1647	9138
1	1636	9139
1	1695	9160
1	1712	9161
1	1725	9162
1	1734	9163
1	1738	9164
1	1738	9165
1	1729	9166
1	1712	9167
1	1688	9168
1	1672	9169
1	1659	9170
1	1645	9171
1	1633	9172
1	1623	9173
1	1619	9174
1	1620	9175
1	1625	9176
1	1634	9177
1	1643	9178
1	1646	9179
1	1621	9140
1	1607	9141
1	1592	9142
1	1578	9143
1	1570	9144
1	1558	9145
1	1555	9146
1	1553	9147
1	1549	9148
1	1553	9149
1	1561	9150
1	1579	9151
1	1594	9152
1	1602	9153
1	1612	9154
1	1622	9155
1	1634	9156
1	1647	9157
1	1664	9158
1	1681	9159
1	1647	9180
1	1651	9181
1	1649	9182
1	1652	9183
1	1656	9184
1	1658	9185
1	1655	9186
1	1652	9187
1	1656	9188
1	1656	9189
1	1657	9190
1	1662	9191
1	1678	9192
1	1699	9193
1	1718	9194
1	1738	9195
1	1751	9196
1	1760	9197
1	1754	9198
1	1754	9199
1	1753	9200
1	1751	9201
1	1751	9202
1	1756	9203
1	1754	9204
1	1752	9205
1	1746	9206
1	1737	9207
1	1722	9208
1	1707	9209
1	1690	9210
1	1679	9211
1	1674	9212
1	1674	9213
1	1680	9214
1	1692	9215
1	1708	9216
1	1728	9217
1	1754	9218
1	1765	9219
1	1710	9240
1	1705	9241
1	1692	9242
1	1671	9243
1	1652	9244
1	1635	9245
1	1623	9246
1	1616	9247
1	1616	9248
1	1613	9249
1	1621	9250
1	1634	9251
1	1651	9252
1	1662	9253
1	1672	9254
1	1680	9255
1	1688	9256
1	1696	9257
1	1695	9258
1	1692	9259
1	1777	9220
1	1779	9221
1	1782	9222
1	1778	9223
1	1764	9224
1	1760	9225
1	1750	9226
1	1738	9227
1	1726	9228
1	1712	9229
1	1697	9230
1	1686	9231
1	1677	9232
1	1673	9233
1	1672	9234
1	1670	9235
1	1679	9236
1	1686	9237
1	1699	9238
1	1704	9239
1	1693	9260
1	1693	9261
1	1690	9262
1	1690	9263
1	1681	9264
1	1665	9265
1	1652	9266
1	1634	9267
1	1611	9268
1	1598	9269
1	1593	9270
1	1597	9271
1	1612	9272
1	1631	9273
1	1646	9274
1	1659	9275
1	1674	9276
1	1686	9277
1	1705	9278
1	1714	9279
1	1723	9280
1	1716	9281
1	1700	9282
1	1688	9283
1	1673	9284
1	1649	9285
1	1625	9286
1	1595	9287
1	1574	9288
1	1555	9289
1	1548	9290
1	1544	9291
1	1544	9292
1	1548	9293
1	1547	9294
1	1553	9295
1	1557	9296
1	1567	9297
1	1577	9298
1	1587	9299
1	1600	9300
1	1611	9301
1	1616	9302
1	1615	9303
1	1608	9304
1	1600	9305
1	1593	9306
1	1582	9307
1	1581	9308
1	1576	9309
1	1576	9310
1	1576	9311
1	1581	9312
1	1587	9313
1	1593	9314
1	1597	9315
1	1603	9316
1	1607	9317
1	1607	9318
1	1612	9319
1	1616	9320
1	1611	9321
1	1607	9322
1	1602	9323
1	1589	9324
1	1580	9325
1	1568	9326
1	1542	9327
1	1514	9328
1	1492	9329
1	1481	9330
1	1482	9331
1	1494	9332
1	1510	9333
1	1527	9334
1	1542	9335
1	1556	9336
1	1569	9337
1	1582	9338
1	1592	9339
1	1582	9340
1	1580	9341
1	1566	9342
1	1556	9343
1	1546	9344
1	1543	9345
1	1544	9346
1	1547	9347
1	1546	9348
1	1554	9349
1	1566	9350
1	1576	9351
1	1579	9352
1	1583	9353
1	1581	9354
1	1580	9355
1	1581	9356
1	1588	9357
1	1599	9358
1	1618	9359
1	1635	9360
1	1646	9361
1	1643	9362
1	1631	9363
1	1616	9364
1	1609	9365
1	1605	9366
1	1603	9367
1	1605	9368
1	1598	9369
1	1593	9370
1	1585	9371
1	1581	9372
1	1577	9373
1	1579	9374
1	1587	9375
1	1602	9376
1	1613	9377
1	1621	9378
1	1629	9379
1	1626	9380
1	1622	9381
1	1619	9382
1	1625	9383
1	1625	9384
1	1621	9385
1	1611	9386
1	1598	9387
1	1582	9388
1	1571	9389
1	1564	9390
1	1557	9391
1	1555	9392
1	1544	9393
1	1543	9394
1	1547	9395
1	1556	9396
1	1568	9397
1	1587	9398
1	1596	9399
1	1604	9400
1	1606	9401
1	1599	9402
1	1593	9403
1	1581	9404
1	1569	9405
1	1560	9406
1	1554	9407
1	1544	9408
1	1548	9409
1	1555	9410
1	1566	9411
1	1580	9412
1	1590	9413
1	1592	9414
1	1592	9415
1	1591	9416
1	1594	9417
1	1599	9418
1	1608	9419
1	1626	9420
1	1643	9421
1	1660	9422
1	1670	9423
1	1679	9424
1	1679	9425
1	1670	9426
1	1658	9427
1	1644	9428
1	1624	9429
1	1602	9430
1	1592	9431
1	1579	9432
1	1563	9433
1	1553	9434
1	1546	9435
1	1545	9436
1	1551	9437
1	1550	9438
1	1561	9439
1	1575	9440
1	1586	9441
1	1594	9442
1	1599	9443
1	1607	9444
1	1605	9445
1	1606	9446
1	1597	9447
1	1587	9448
1	1581	9449
1	1571	9450
1	1563	9451
1	1558	9452
1	1556	9453
1	1565	9454
1	1577	9455
1	1593	9456
1	1609	9457
1	1634	9458
1	1645	9459
1	1638	9480
1	1657	9481
1	1662	9482
1	1669	9483
1	1669	9484
1	1662	9485
1	1649	9486
1	1629	9487
1	1608	9488
1	1589	9489
1	1574	9490
1	1568	9491
1	1566	9492
1	1566	9493
1	1566	9494
1	1569	9495
1	1569	9496
1	1571	9497
1	1577	9498
1	1584	9499
1	1602	9500
1	1613	9501
1	1625	9502
1	1636	9503
1	1637	9504
1	1637	9505
1	1643	9506
1	1645	9507
1	1641	9508
1	1638	9509
1	1635	9510
1	1637	9511
1	1636	9512
1	1633	9513
1	1629	9514
1	1626	9515
1	1625	9516
1	1620	9517
1	1629	9518
1	1634	9519
1	1655	9460
1	1658	9461
1	1651	9462
1	1639	9463
1	1629	9464
1	1613	9465
1	1606	9466
1	1586	9467
1	1564	9468
1	1546	9469
1	1540	9470
1	1539	9471
1	1542	9472
1	1553	9473
1	1558	9474
1	1569	9475
1	1581	9476
1	1592	9477
1	1605	9478
1	1620	9479
1	1642	9520
1	1656	9521
1	1669	9522
1	1683	9523
1	1686	9524
1	1685	9525
1	1674	9526
1	1658	9527
1	1636	9528
1	1611	9529
1	1583	9530
1	1554	9531
1	1529	9532
1	1508	9533
1	1494	9534
1	1485	9535
1	1488	9536
1	1492	9537
1	1503	9538
1	1517	9539
1	1539	9540
1	1568	9541
1	1599	9542
1	1621	9543
1	1639	9544
1	1651	9545
1	1654	9546
1	1651	9547
1	1652	9548
1	1634	9549
1	1617	9550
1	1605	9551
1	1596	9552
1	1595	9553
1	1602	9554
1	1612	9555
1	1624	9556
1	1636	9557
1	1642	9558
1	1656	9559
1	1679	9580
1	1679	9581
1	1674	9582
1	1682	9583
1	1690	9584
1	1702	9585
1	1716	9586
1	1721	9587
1	1724	9588
1	1721	9589
1	1712	9590
1	1705	9591
1	1697	9592
1	1692	9593
1	1688	9594
1	1686	9595
1	1685	9596
1	1681	9597
1	1678	9598
1	1679	9599
1	1673	9560
1	1686	9561
1	1691	9562
1	1695	9563
1	1691	9564
1	1685	9565
1	1674	9566
1	1661	9567
1	1654	9568
1	1644	9569
1	1634	9570
1	1629	9571
1	1623	9572
1	1609	9573
1	1612	9574
1	1619	9575
1	1632	9576
1	1643	9577
1	1662	9578
1	1674	9579
1	1685	9600
1	1697	9601
1	1712	9602
1	1721	9603
1	1737	9604
1	1752	9605
1	1764	9606
1	1769	9607
1	1773	9608
1	1764	9609
1	1750	9610
1	1736	9611
1	1723	9612
1	1715	9613
1	1712	9614
1	1708	9615
1	1707	9616
1	1709	9617
1	1706	9618
1	1708	9619
1	1710	9620
1	1708	9621
1	1703	9622
1	1704	9623
1	1681	9624
1	1668	9625
1	1656	9626
1	1634	9627
1	1617	9628
1	1603	9629
1	1583	9630
1	1573	9631
1	1572	9632
1	1581	9633
1	1594	9634
1	1615	9635
1	1638	9636
1	1661	9637
1	1688	9638
1	1716	9639
1	1737	9640
1	1748	9641
1	1744	9642
1	1735	9643
1	1716	9644
1	1700	9645
1	1678	9646
1	1655	9647
1	1620	9648
1	1594	9649
1	1575	9650
1	1559	9651
1	1552	9652
1	1555	9653
1	1555	9654
1	1555	9655
1	1561	9656
1	1567	9657
1	1579	9658
1	1587	9659
1	1602	9660
1	1619	9661
1	1639	9662
1	1654	9663
1	1665	9664
1	1672	9665
1	1671	9666
1	1670	9667
1	1665	9668
1	1651	9669
1	1634	9670
1	1611	9671
1	1598	9672
1	1589	9673
1	1584	9674
1	1587	9675
1	1593	9676
1	1606	9677
1	1607	9678
1	1612	9679
1	1620	9680
1	1626	9681
1	1631	9682
1	1640	9683
1	1638	9684
1	1629	9685
1	1611	9686
1	1593	9687
1	1581	9688
1	1574	9689
1	1572	9690
1	1573	9691
1	1572	9692
1	1567	9693
1	1575	9694
1	1585	9695
1	1599	9696
1	1615	9697
1	1634	9698
1	1646	9699
1	1654	9700
1	1656	9701
1	1659	9702
1	1660	9703
1	1661	9704
1	1661	9705
1	1659	9706
1	1645	9707
1	1618	9708
1	1589	9709
1	1557	9710
1	1525	9711
1	1494	9712
1	1472	9713
1	1448	9714
1	1433	9715
1	1428	9716
1	1434	9717
1	1448	9718
1	1460	9719
1	1479	9720
1	1503	9721
1	1534	9722
1	1555	9723
1	1580	9724
1	1602	9725
1	1624	9726
1	1647	9727
1	1686	9728
1	1733	9729
1	1762	9730
1	1826	9731
1	1877	9732
1	1925	9733
1	1985	9734
1	2043	9735
1	2106	9736
1	2170	9737
1	2244	9738
1	2313	9739
1	2381	9740
1	2448	9741
1	2504	9742
1	2546	9743
1	2583	9744
1	2624	9745
1	2649	9746
1	2660	9747
1	2655	9748
1	2642	9749
1	2605	9750
1	2563	9751
1	2508	9752
1	2435	9753
1	2367	9754
1	2301	9755
1	2240	9756
1	2183	9757
1	2136	9758
1	2090	9759
1	2052	9760
1	2015	9761
1	1976	9762
1	1939	9763
1	1901	9764
1	1863	9765
1	1817	9766
1	1765	9767
1	1720	9768
1	1687	9769
1	1659	9770
1	1634	9771
1	1618	9772
1	1612	9773
1	1608	9774
1	1610	9775
1	1620	9776
1	1626	9777
1	1631	9778
1	1634	9779
1	1634	9780
1	1634	9781
1	1631	9782
1	1616	9783
1	1608	9784
1	1607	9785
1	1609	9786
1	1611	9787
1	1618	9788
1	1616	9789
1	1608	9790
1	1603	9791
1	1592	9792
1	1581	9793
1	1569	9794
1	1566	9795
1	1568	9796
1	1580	9797
1	1583	9798
1	1599	9799
1	1623	9800
1	1648	9801
1	1668	9802
1	1693	9803
1	1706	9804
1	1710	9805
1	1700	9806
1	1683	9807
1	1656	9808
1	1634	9809
1	1607	9810
1	1589	9811
1	1569	9812
1	1550	9813
1	1540	9814
1	1540	9815
1	1546	9816
1	1560	9817
1	1583	9818
1	1600	9819
1	1617	9820
1	1629	9821
1	1638	9822
1	1648	9823
1	1654	9824
1	1657	9825
1	1656	9826
1	1643	9827
1	1629	9828
1	1616	9829
1	1607	9830
1	1607	9831
1	1607	9832
1	1613	9833
1	1617	9834
1	1618	9835
1	1618	9836
1	1611	9837
1	1610	9838
1	1620	9839
1	1634	9840
1	1643	9841
1	1649	9842
1	1652	9843
1	1656	9844
1	1656	9845
1	1647	9846
1	1644	9847
1	1649	9848
1	1647	9849
1	1646	9850
1	1639	9851
1	1634	9852
1	1620	9853
1	1609	9854
1	1607	9855
1	1607	9856
1	1616	9857
1	1621	9858
1	1626	9859
1	1632	9860
1	1632	9861
1	1633	9862
1	1645	9863
1	1659	9864
1	1674	9865
1	1680	9866
1	1674	9867
1	1658	9868
1	1634	9869
1	1616	9870
1	1602	9871
1	1594	9872
1	1593	9873
1	1610	9874
1	1638	9875
1	1673	9876
1	1708	9877
1	1741	9878
1	1760	9879
1	1764	9880
1	1764	9881
1	1754	9882
1	1742	9883
1	1724	9884
1	1707	9885
1	1687	9886
1	1665	9887
1	1652	9888
1	1639	9889
1	1634	9890
1	1634	9891
1	1634	9892
1	1643	9893
1	1652	9894
1	1670	9895
1	1688	9896
1	1714	9897
1	1743	9898
1	1766	9899
1	1785	9900
1	1796	9901
1	1801	9902
1	1795	9903
1	1791	9904
1	1777	9905
1	1755	9906
1	1731	9907
1	1718	9908
1	1704	9909
1	1695	9910
1	1687	9911
1	1686	9912
1	1682	9913
1	1684	9914
1	1686	9915
1	1693	9916
1	1701	9917
1	1703	9918
1	1713	9919
1	1727	9920
1	1738	9921
1	1747	9922
1	1763	9923
1	1764	9924
1	1755	9925
1	1754	9926
1	1740	9927
1	1734	9928
1	1724	9929
1	1720	9930
1	1719	9931
1	1718	9932
1	1715	9933
1	1717	9934
1	1723	9935
1	1728	9936
1	1737	9937
1	1742	9938
1	1742	9939
1	1741	9940
1	1737	9941
1	1723	9942
1	1711	9943
1	1698	9944
1	1686	9945
1	1674	9946
1	1665	9947
1	1649	9948
1	1643	9949
1	1634	9950
1	1634	9951
1	1636	9952
1	1652	9953
1	1661	9954
1	1678	9955
1	1696	9956
1	1711	9957
1	1726	9958
1	1737	9959
1	1743	9960
1	1751	9961
1	1760	9962
1	1760	9963
1	1757	9964
1	1747	9965
1	1728	9966
1	1705	9967
1	1688	9968
1	1668	9969
1	1650	9970
1	1639	9971
1	1634	9972
1	1634	9973
1	1642	9974
1	1654	9975
1	1669	9976
1	1681	9977
1	1680	9978
1	1685	9979
1	1687	9980
1	1690	9981
1	1698	9982
1	1714	9983
1	1718	9984
1	1726	9985
1	1714	9986
1	1696	9987
1	1669	9988
1	1646	9989
1	1616	9990
1	1593	9991
1	1573	9992
1	1554	9993
1	1547	9994
1	1551	9995
1	1566	9996
1	1583	9997
1	1607	9998
1	1629	9999
1	1651	10000
1	1672	10001
1	1686	10002
1	1693	10003
1	1695	10004
1	1690	10005
1	1680	10006
1	1661	10007
1	1643	10008
1	1625	10009
1	1604	10010
1	1587	10011
1	1578	10012
1	1574	10013
1	1573	10014
1	1576	10015
1	1581	10016
1	1590	10017
1	1598	10018
1	1603	10019
1	1608	10020
1	1611	10021
1	1609	10022
1	1598	10023
1	1581	10024
1	1571	10025
1	1556	10026
1	1542	10027
1	1535	10028
1	1529	10029
1	1525	10030
1	1534	10031
1	1541	10032
1	1544	10033
1	1544	10034
1	1543	10035
1	1553	10036
1	1559	10037
1	1571	10038
1	1582	10039
1	1602	10040
1	1610	10041
1	1623	10042
1	1633	10043
1	1634	10044
1	1641	10045
1	1647	10046
1	1654	10047
1	1649	10048
1	1641	10049
1	1633	10050
1	1629	10051
1	1630	10052
1	1621	10053
1	1620	10054
1	1621	10055
1	1628	10056
1	1634	10057
1	1649	10058
1	1660	10059
1	1668	10060
1	1670	10061
1	1670	10062
1	1670	10063
1	1671	10064
1	1665	10065
1	1660	10066
1	1648	10067
1	1626	10068
1	1609	10069
1	1595	10070
1	1584	10071
1	1580	10072
1	1581	10073
1	1586	10074
1	1599	10075
1	1620	10076
1	1644	10077
1	1665	10078
1	1682	10079
1	1686	10080
1	1685	10081
1	1674	10082
1	1660	10083
1	1656	10084
1	1647	10085
1	1633	10086
1	1615	10087
1	1599	10088
1	1584	10089
1	1573	10090
1	1571	10091
1	1579	10092
1	1587	10093
1	1607	10094
1	1631	10095
1	1651	10096
1	1665	10097
1	1677	10098
1	1686	10099
1	1688	10100
1	1686	10101
1	1678	10102
1	1680	10103
1	1674	10104
1	1667	10105
1	1657	10106
1	1646	10107
1	1629	10108
1	1610	10109
1	1596	10110
1	1586	10111
1	1585	10112
1	1582	10113
1	1593	10114
1	1600	10115
1	1607	10116
1	1616	10117
1	1633	10118
1	1641	10119
1	1651	10120
1	1661	10121
1	1667	10122
1	1669	10123
1	1670	10124
1	1662	10125
1	1661	10126
1	1660	10127
1	1657	10128
1	1652	10129
1	1647	10130
1	1650	10131
1	1659	10132
1	1673	10133
1	1685	10134
1	1691	10135
1	1701	10136
1	1698	10137
1	1695	10138
1	1690	10139
1	1685	10140
1	1675	10141
1	1674	10142
1	1662	10143
1	1660	10144
1	1649	10145
