#Date:= 2024-10-08T15:49:55.765599
#Sampling Rate(Hz):= 1000
#Labels:= LOD	ECG	TS
1	1743	20
1	1743	21
1	1753	22
1	1764	23
1	1778	24
1	1789	25
1	1796	26
1	1794	27
1	1799	28
1	1792	29
1	1787	30
1	1792	31
1	1800	32
1	1802	33
1	1806	34
1	1803	35
1	1808	36
1	1817	37
1	1646	38
1	1632	39
1	1615	40
1	1604	41
1	1589	42
1	1572	43
1	1555	44
1	1542	45
1	1533	46
1	1525	47
1	1510	48
1	1506	49
1	1508	50
1	1520	51
1	1541	52
1	1555	53
1	1572	54
1	1592	55
1	1605	56
1	1611	57
1	1611	58
1	1608	59
1	1599	60
1	1589	61
1	1576	62
1	1553	63
1	1529	64
1	1503	65
1	1482	66
1	1476	67
1	1477	68
1	1489	69
1	1499	70
1	1512	71
1	1529	72
1	1550	73
1	1569	74
1	1584	75
1	1594	76
1	1596	77
1	1581	78
1	1562	79
1	1542	80
1	1522	81
1	1503	82
1	1480	83
1	1459	84
1	1440	85
1	1422	86
1	1398	87
1	1373	88
1	1362	89
1	1356	90
1	1364	91
1	1381	92
1	1403	93
1	1431	94
1	1466	95
1	1503	96
1	1545	97
1	1580	98
1	1607	99
1	1625	100
1	1637	101
1	1643	102
1	1646	103
1	1651	104
1	1661	105
1	1677	106
1	1694	107
1	1705	108
1	1716	109
1	1731	110
1	1743	111
1	1769	112
1	1792	113
1	1821	114
1	1857	115
1	1898	116
1	1944	117
1	1986	118
1	2025	119
1	1225	140
1	1229	141
1	1252	142
1	1299	143
1	1346	144
1	1408	145
1	1455	146
1	1499	147
1	1527	148
1	1549	149
1	1569	150
1	1580	151
1	1582	152
1	1571	153
1	1557	154
1	1555	155
1	1553	156
1	1557	157
1	1566	158
1	1563	159
1	2057	120
1	2086	121
1	2104	122
1	2092	123
1	2066	124
1	2029	125
1	1983	126
1	1935	127
1	1895	128
1	1843	129
1	1782	130
1	1726	131
1	1667	132
1	1603	133
1	1530	134
1	1456	135
1	1379	136
1	1318	137
1	1267	138
1	1240	139
1	1562	160
1	1543	161
1	1512	162
1	1486	163
1	1474	164
1	1468	165
1	1467	166
1	1476	167
1	1484	168
1	1495	169
1	1503	170
1	1512	171
1	1523	172
1	1539	173
1	1559	174
1	1594	175
1	1633	176
1	1661	177
1	1686	178
1	1697	179
1	1700	180
1	1697	181
1	1684	182
1	1654	183
1	1631	184
1	1607	185
1	1582	186
1	1566	187
1	1549	188
1	1526	189
1	1505	190
1	1498	191
1	1490	192
1	1482	193
1	1476	194
1	1469	195
1	1469	196
1	1461	197
1	1452	198
1	1445	199
1	1433	200
1	1420	201
1	1412	202
1	1402	203
1	1400	204
1	1408	205
1	1431	206
1	1460	207
1	1493	208
1	1525	209
1	1554	210
1	1576	211
1	1594	212
1	1607	213
1	1622	214
1	1638	215
1	1657	216
1	1673	217
1	1694	218
1	1704	219
1	1707	220
1	1703	221
1	1691	222
1	1679	223
1	1662	224
1	1647	225
1	1631	226
1	1616	227
1	1595	228
1	1579	229
1	1561	230
1	1555	231
1	1566	232
1	1569	233
1	1569	234
1	1576	235
1	1585	236
1	1608	237
1	1638	238
1	1671	239
1	1625	260
1	1651	261
1	1678	262
1	1701	263
1	1712	264
1	1712	265
1	1711	266
1	1712	267
1	1712	268
1	1713	269
1	1715	270
1	1715	271
1	1718	272
1	1712	273
1	1699	274
1	1686	275
1	1671	276
1	1665	277
1	1660	278
1	1660	279
1	1658	280
1	1656	281
1	1650	282
1	1641	283
1	1634	284
1	1626	285
1	1623	286
1	1621	287
1	1623	288
1	1633	289
1	1645	290
1	1662	291
1	1695	292
1	1719	293
1	1743	294
1	1762	295
1	1773	296
1	1764	297
1	1755	298
1	1731	299
1	1703	240
1	1734	241
1	1751	242
1	1751	243
1	1751	244
1	1744	245
1	1742	246
1	1738	247
1	1722	248
1	1690	249
1	1647	250
1	1611	251
1	1584	252
1	1564	253
1	1554	254
1	1548	255
1	1554	256
1	1567	257
1	1580	258
1	1599	259
1	1704	300
1	1685	301
1	1673	302
1	1672	303
1	1672	304
1	1661	305
1	1647	306
1	1646	307
1	1647	308
1	1651	309
1	1655	310
1	1659	311
1	1665	312
1	1675	313
1	1688	314
1	1699	315
1	1707	316
1	1711	317
1	1703	318
1	1692	319
1	1679	320
1	1665	321
1	1656	322
1	1655	323
1	1647	324
1	1649	325
1	1652	326
1	1660	327
1	1664	328
1	1670	329
1	1676	330
1	1680	331
1	1686	332
1	1690	333
1	1696	334
1	1705	335
1	1709	336
1	1712	337
1	1710	338
1	1708	339
1	1707	340
1	1727	341
1	1742	342
1	1760	343
1	1769	344
1	1782	345
1	1795	346
1	1812	347
1	1821	348
1	1827	349
1	1823	350
1	1811	351
1	1793	352
1	1778	353
1	1765	354
1	1760	355
1	1762	356
1	1760	357
1	1757	358
1	1753	359
1	1748	360
1	1740	361
1	1736	362
1	1728	363
1	1724	364
1	1714	365
1	1705	366
1	1696	367
1	1699	368
1	1703	369
1	1712	370
1	1713	371
1	1708	372
1	1693	373
1	1677	374
1	1665	375
1	1660	376
1	1662	377
1	1672	378
1	1692	379
1	1712	380
1	1728	381
1	1739	382
1	1729	383
1	1710	384
1	1686	385
1	1655	386
1	1616	387
1	1580	388
1	1551	389
1	1542	390
1	1554	391
1	1581	392
1	1620	393
1	1683	394
1	1749	395
1	1817	396
1	1870	397
1	1915	398
1	1935	399
1	1935	400
1	1913	401
1	1877	402
1	1831	403
1	1773	404
1	1712	405
1	1656	406
1	1608	407
1	1580	408
1	1570	409
1	1577	410
1	1593	411
1	1623	412
1	1650	413
1	1682	414
1	1712	415
1	1734	416
1	1746	417
1	1746	418
1	1738	419
1	1724	420
1	1710	421
1	1690	422
1	1665	423
1	1647	424
1	1625	425
1	1607	426
1	1594	427
1	1605	428
1	1620	429
1	1647	430
1	1672	431
1	1697	432
1	1725	433
1	1751	434
1	1756	435
1	1747	436
1	1731	437
1	1707	438
1	1686	439
1	1816	480
1	1832	481
1	1847	482
1	1854	483
1	1854	484
1	1845	485
1	1830	486
1	1813	487
1	1778	488
1	1742	489
1	1703	490
1	1661	491
1	1631	492
1	1608	493
1	1605	494
1	1620	495
1	1652	496
1	1692	497
1	1728	498
1	1774	499
1	1669	440
1	1656	441
1	1641	442
1	1634	443
1	1623	444
1	1611	445
1	1619	446
1	1625	447
1	1634	448
1	1647	449
1	1669	450
1	1698	451
1	1728	452
1	1751	453
1	1772	454
1	1791	455
1	1803	456
1	1813	457
1	1810	458
1	1809	459
1	1824	500
1	1866	501
1	1905	502
1	1922	503
1	1934	504
1	1929	505
1	1914	506
1	1895	507
1	1877	508
1	1859	509
1	1835	510
1	1808	511
1	1778	512
1	1751	513
1	1727	514
1	1704	515
1	1692	516
1	1688	517
1	1699	518
1	1704	519
1	1815	460
1	1811	461
1	1809	462
1	1813	463
1	1813	464
1	1809	465
1	1800	466
1	1791	467
1	1769	468
1	1752	469
1	1734	470
1	1712	471
1	1693	472
1	1688	473
1	1686	474
1	1695	475
1	1712	476
1	1736	477
1	1760	478
1	1789	479
1	1723	520
1	1753	521
1	1787	522
1	1816	523
1	1827	524
1	1831	525
1	1834	526
1	1837	527
1	1829	528
1	1817	529
1	1803	530
1	1791	531
1	1791	532
1	1782	533
1	1782	534
1	1791	535
1	1817	536
1	1827	537
1	1826	538
1	1817	539
1	1799	540
1	1791	541
1	1791	542
1	1790	543
1	1785	544
1	1777	545
1	1770	546
1	1770	547
1	1776	548
1	1783	549
1	1788	550
1	1798	551
1	1813	552
1	1823	553
1	1829	554
1	1827	555
1	1817	556
1	1811	557
1	1800	558
1	1800	559
1	1684	580
1	1677	581
1	1665	582
1	1652	583
1	1642	584
1	1638	585
1	1644	586
1	1654	587
1	1661	588
1	1674	589
1	1695	590
1	1716	591
1	1740	592
1	1751	593
1	1751	594
1	1743	595
1	1738	596
1	1724	597
1	1703	598
1	1680	599
1	1793	560
1	1792	561
1	1796	562
1	1811	563
1	1816	564
1	1815	565
1	1817	566
1	1814	567
1	1803	568
1	1792	569
1	1786	570
1	1770	571
1	1764	572
1	1751	573
1	1737	574
1	1721	575
1	1711	576
1	1708	577
1	1698	578
1	1688	579
1	1654	600
1	1631	601
1	1610	602
1	1605	603
1	1605	604
1	1607	605
1	1624	606
1	1647	607
1	1665	608
1	1680	609
1	1696	610
1	1706	611
1	1711	612
1	1704	613
1	1687	614
1	1671	615
1	1664	616
1	1664	617
1	1667	618
1	1681	619
1	1694	620
1	1706	621
1	1713	622
1	1722	623
1	1719	624
1	1721	625
1	1729	626
1	1739	627
1	1760	628
1	1776	629
1	1791	630
1	1803	631
1	1811	632
1	1799	633
1	1796	634
1	1803	635
1	1817	636
1	1831	637
1	1839	638
1	1845	639
1	1847	640
1	1862	641
1	1862	642
1	1854	643
1	1836	644
1	1813	645
1	1782	646
1	1751	647
1	1727	648
1	1700	649
1	1670	650
1	1643	651
1	1623	652
1	1607	653
1	1602	654
1	1598	655
1	1604	656
1	1605	657
1	1615	658
1	1634	659
1	1643	660
1	1645	661
1	1641	662
1	1628	663
1	1616	664
1	1616	665
1	1621	666
1	1628	667
1	1641	668
1	1655	669
1	1672	670
1	1688	671
1	1701	672
1	1712	673
1	1733	674
1	1760	675
1	1786	676
1	1810	677
1	1817	678
1	1819	679
1	1814	680
1	1783	681
1	1747	682
1	1695	683
1	1647	684
1	1603	685
1	1574	686
1	1562	687
1	1564	688
1	1573	689
1	1582	690
1	1593	691
1	1600	692
1	1605	693
1	1616	694
1	1633	695
1	1643	696
1	1660	697
1	1675	698
1	1694	699
1	1711	700
1	1715	701
1	1721	702
1	1707	703
1	1679	704
1	1656	705
1	1636	706
1	1634	707
1	1634	708
1	1639	709
1	1647	710
1	1659	711
1	1669	712
1	1670	713
1	1674	714
1	1676	715
1	1674	716
1	1674	717
1	1672	718
1	1672	719
1	1674	720
1	1678	721
1	1681	722
1	1679	723
1	1688	724
1	1709	725
1	1741	726
1	1777	727
1	1821	728
1	1853	729
1	1885	730
1	1917	731
1	1947	732
1	1972	733
1	1983	734
1	1983	735
1	1973	736
1	1962	737
1	1948	738
1	1943	739
1	1942	740
1	1944	741
1	1948	742
1	1960	743
1	1972	744
1	1986	745
1	1989	746
1	1988	747
1	1985	748
1	1981	749
1	1978	750
1	1973	751
1	1958	752
1	1924	753
1	1890	754
1	1848	755
1	1798	756
1	1739	757
1	1679	758
1	1611	759
1	1544	760
1	1480	761
1	1424	762
1	1374	763
1	1337	764
1	1306	765
1	1292	766
1	1293	767
1	1306	768
1	1327	769
1	1355	770
1	1393	771
1	1426	772
1	1467	773
1	1503	774
1	1534	775
1	1566	776
1	1595	777
1	1619	778
1	1639	779
1	1661	780
1	1686	781
1	1707	782
1	1723	783
1	1737	784
1	1738	785
1	1728	786
1	1713	787
1	1690	788
1	1667	789
1	1644	790
1	1626	791
1	1613	792
1	1607	793
1	1603	794
1	1597	795
1	1583	796
1	1566	797
1	1543	798
1	1531	799
1	1531	800
1	1531	801
1	1535	802
1	1533	803
1	1526	804
1	1515	805
1	1503	806
1	1497	807
1	1494	808
1	1495	809
1	1489	810
1	1475	811
1	1464	812
1	1466	813
1	1488	814
1	1516	815
1	1542	816
1	1570	817
1	1602	818
1	1625	819
1	1643	820
1	1655	821
1	1650	822
1	1634	823
1	1616	824
1	1597	825
1	1579	826
1	1566	827
1	1554	828
1	1546	829
1	1544	830
1	1544	831
1	1553	832
1	1562	833
1	1577	834
1	1591	835
1	1607	836
1	1619	837
1	1634	838
1	1647	839
1	1654	840
1	1666	841
1	1677	842
1	1680	843
1	1680	844
1	1674	845
1	1665	846
1	1660	847
1	1655	848
1	1646	849
1	1641	850
1	1635	851
1	1629	852
1	1618	853
1	1599	854
1	1580	855
1	1566	856
1	1555	857
1	1546	858
1	1551	859
1	1563	860
1	1578	861
1	1592	862
1	1605	863
1	1608	864
1	1610	865
1	1608	866
1	1606	867
1	1600	868
1	1593	869
1	1589	870
1	1586	871
1	1582	872
1	1566	873
1	1555	874
1	1544	875
1	1539	876
1	1542	877
1	1544	878
1	1549	879
1	1616	920
1	1600	921
1	1592	922
1	1581	923
1	1577	924
1	1580	925
1	1582	926
1	1592	927
1	1602	928
1	1612	929
1	1621	930
1	1625	931
1	1619	932
1	1607	933
1	1598	934
1	1581	935
1	1557	936
1	1543	937
1	1529	938
1	1527	939
1	1555	900
1	1574	901
1	1592	902
1	1608	903
1	1643	904
1	1685	905
1	1729	906
1	1777	907
1	1809	908
1	1822	909
1	1824	910
1	1815	911
1	1796	912
1	1778	913
1	1756	914
1	1734	915
1	1710	916
1	1686	917
1	1659	918
1	1636	919
1	1581	1000
1	1581	1001
1	1585	1002
1	1585	1003
1	1584	1004
1	1587	1005
1	1594	1006
1	1602	1007
1	1608	1008
1	1623	1009
1	1634	1010
1	1646	1011
1	1656	1012
1	1652	1013
1	1647	1014
1	1638	1015
1	1626	1016
1	1611	1017
1	1587	1018
1	1562	1019
1	1544	1000
1	1531	1001
1	1526	1002
1	1521	1003
1	1517	1004
1	1516	1005
1	1517	1006
1	1517	1007
1	1510	1008
1	1503	1009
1	1487	1010
1	1467	1011
1	1450	1012
1	1431	1013
1	1407	1014
1	1380	1015
1	1363	1016
1	1353	1017
1	1346	1018
1	1346	1019
1	1660	980
1	1701	981
1	1739	982
1	1763	983
1	1782	984
1	1798	985
1	1803	986
1	1803	987
1	1791	988
1	1767	989
1	1739	990
1	1711	991
1	1685	992
1	1661	993
1	1642	994
1	1628	995
1	1611	996
1	1601	997
1	1589	998
1	1583	999
1	1555	880
1	1570	881
1	1586	882
1	1607	883
1	1623	884
1	1634	885
1	1630	886
1	1620	887
1	1598	888
1	1580	889
1	1553	890
1	1521	891
1	1500	892
1	1478	893
1	1469	894
1	1472	895
1	1485	896
1	1503	897
1	1520	898
1	1537	899
1	1528	940
1	1548	941
1	1571	942
1	1598	943
1	1616	944
1	1642	945
1	1669	946
1	1699	947
1	1719	948
1	1723	949
1	1709	950
1	1686	951
1	1661	952
1	1634	953
1	1606	954
1	1589	955
1	1576	956
1	1581	957
1	1594	958
1	1622	959
1	1348	1040
1	1369	1041
1	1392	1042
1	1406	1043
1	1427	1044
1	1452	1045
1	1476	1046
1	1489	1047
1	1484	1048
1	1476	1049
1	1472	1050
1	1464	1051
1	1463	1052
1	1460	1053
1	1454	1054
1	1450	1055
1	1447	1056
1	1446	1057
1	1437	1058
1	1435	1059
1	1426	1060
1	1417	1061
1	1407	1062
1	1398	1063
1	1393	1064
1	1377	1065
1	1361	1066
1	1343	1067
1	1318	1068
1	1298	1069
1	1291	1070
1	1286	1071
1	1289	1072
1	1292	1073
1	1294	1074
1	1305	1075
1	1315	1076
1	1319	1077
1	1317	1078
1	1312	1079
1	1381	1080
1	1398	1081
1	1412	1082
1	1412	1083
1	1415	1084
1	1412	1085
1	1409	1086
1	1409	1087
1	1400	1088
1	1394	1089
1	1373	1090
1	1347	1091
1	1322	1092
1	1296	1093
1	1269	1094
1	1241	1095
1	1218	1096
1	1210	1097
1	1211	1098
1	1215	1099
1	1305	1080
1	1298	1081
1	1288	1082
1	1279	1083
1	1273	1084
1	1278	1085
1	1291	1086
1	1310	1087
1	1322	1088
1	1333	1089
1	1340	1090
1	1342	1091
1	1346	1092
1	1346	1093
1	1345	1094
1	1346	1095
1	1350	1096
1	1355	1097
1	1360	1098
1	1370	1099
1	1224	1100
1	1238	1101
1	1266	1102
1	1291	1103
1	1308	1104
1	1320	1105
1	1332	1106
1	1343	1107
1	1346	1108
1	1348	1109
1	1346	1110
1	1343	1111
1	1341	1112
1	1337	1113
1	1337	1114
1	1340	1115
1	1342	1116
1	1349	1117
1	1347	1118
1	1341	1119
1	1329	1120
1	1314	1121
1	1293	1122
1	1271	1123
1	1261	1124
1	1256	1125
1	1256	1126
1	1247	1127
1	1228	1128
1	1206	1129
1	1186	1130
1	1166	1131
1	1160	1132
1	1151	1133
1	1139	1134
1	1125	1135
1	1110	1136
1	1107	1137
1	1107	1138
1	1110	1139
1	1120	1160
1	1125	1161
1	1130	1162
1	1135	1163
1	1141	1164
1	1145	1165
1	1146	1166
1	1140	1167
1	1133	1168
1	1114	1169
1	1098	1170
1	1094	1171
1	1109	1172
1	1121	1173
1	1130	1174
1	1143	1175
1	1154	1176
1	1161	1177
1	1164	1178
1	1176	1179
1	1138	1200
1	1117	1201
1	1085	1202
1	1058	1203
1	1049	1204
1	1045	1205
1	1050	1206
1	1061	1207
1	1067	1208
1	1069	1209
1	1069	1210
1	1071	1211
1	1073	1212
1	1085	1213
1	1110	1214
1	1125	1215
1	1140	1216
1	1163	1217
1	1186	1218
1	1207	1219
1	1193	1180
1	1212	1181
1	1237	1182
1	1253	1183
1	1265	1184
1	1267	1185
1	1265	1186
1	1260	1187
1	1249	1188
1	1240	1189
1	1219	1190
1	1193	1191
1	1166	1192
1	1140	1193
1	1125	1194
1	1116	1195
1	1108	1196
1	1098	1197
1	1085	1198
1	1074	1199
1	1069	1200
1	1071	1201
1	1084	1202
1	1104	1203
1	1127	1204
1	1152	1205
1	1171	1206
1	1184	1207
1	1195	1208
1	1215	1209
1	1233	1210
1	1250	1211
1	1267	1212
1	1267	1213
1	1262	1214
1	1251	1215
1	1237	1216
1	1215	1217
1	1188	1218
1	1162	1219
1	1225	1220
1	1232	1221
1	1238	1222
1	1227	1223
1	1211	1224
1	1190	1225
1	1171	1226
1	1143	1227
1	1117	1228
1	1094	1229
1	1081	1230
1	1079	1231
1	1080	1232
1	1084	1233
1	1092	1234
1	1107	1235
1	1121	1236
1	1136	1237
1	1154	1238
1	1166	1239
1	1188	1240
1	1207	1241
1	1222	1242
1	1233	1243
1	1237	1244
1	1241	1245
1	1242	1246
1	1243	1247
1	1242	1248
1	1238	1249
1	1230	1250
1	1220	1251
1	1210	1252
1	1199	1253
1	1188	1254
1	1188	1255
1	1187	1256
1	1188	1257
1	1180	1258
1	1177	1259
1	1175	1260
1	1170	1261
1	1163	1262
1	1153	1263
1	1153	1264
1	1164	1265
1	1176	1266
1	1197	1267
1	1220	1268
1	1244	1269
1	1267	1270
1	1288	1271
1	1310	1272
1	1330	1273
1	1346	1274
1	1363	1275
1	1376	1276
1	1395	1277
1	1398	1278
1	1399	1279
1	1396	1280
1	1376	1281
1	1362	1282
1	1341	1283
1	1319	1284
1	1292	1285
1	1258	1286
1	1229	1287
1	1215	1288
1	1207	1289
1	1211	1290
1	1222	1291
1	1237	1292
1	1255	1293
1	1278	1294
1	1306	1295
1	1328	1296
1	1351	1297
1	1372	1298
1	1377	1299
1	1379	1300
1	1371	1301
1	1354	1302
1	1335	1303
1	1317	1304
1	1293	1305
1	1266	1306
1	1247	1307
1	1240	1308
1	1247	1309
1	1267	1310
1	1281	1311
1	1294	1312
1	1302	1313
1	1310	1314
1	1323	1315
1	1346	1316
1	1380	1317
1	1422	1318
1	1461	1319
1	1494	1320
1	1519	1321
1	1528	1322
1	1517	1323
1	1501	1324
1	1476	1325
1	1449	1326
1	1436	1327
1	1424	1328
1	1409	1329
1	1395	1330
1	1376	1331
1	1364	1332
1	1354	1333
1	1346	1334
1	1348	1335
1	1355	1336
1	1358	1337
1	1355	1338
1	1363	1339
1	1369	1340
1	1380	1341
1	1406	1342
1	1442	1343
1	1487	1344
1	1539	1345
1	1603	1346
1	1652	1347
1	1693	1348
1	1734	1349
1	1760	1350
1	1773	1351
1	1778	1352
1	1778	1353
1	1770	1354
1	1760	1355
1	1744	1356
1	1729	1357
1	1713	1358
1	1712	1359
1	1708	1360
1	1712	1361
1	1718	1362
1	1736	1363
1	1749	1364
1	1766	1365
1	1791	1366
1	1827	1367
1	1856	1368
1	1895	1369
1	1935	1370
1	1969	1371
1	2004	1372
1	2028	1373
1	2052	1374
1	2083	1375
1	2120	1376
1	2161	1377
1	2201	1378
1	2246	1379
1	2289	1380
1	2336	1381
1	2374	1382
1	2402	1383
1	2443	1384
1	2483	1385
1	2509	1386
1	2535	1387
1	2554	1388
1	2558	1389
1	2543	1390
1	2523	1391
1	2497	1392
1	2459	1393
1	2412	1394
1	2366	1395
1	2306	1396
1	2241	1397
1	2157	1398
1	2083	1399
1	2005	1400
1	1923	1401
1	1862	1402
1	1826	1403
1	1820	1404
1	1834	1405
1	1862	1406
1	1899	1407
1	1949	1408
1	1997	1409
1	2039	1410
1	2080	1411
1	2125	1412
1	2156	1413
1	2183	1414
1	2209	1415
1	2212	1416
1	2217	1417
1	2210	1418
1	2198	1419
1	2186	1420
1	2183	1421
1	2189	1422
1	2208	1423
1	2235	1424
1	2261	1425
1	2281	1426
1	2287	1427
1	2273	1428
1	2251	1429
1	2231	1430
1	2210	1431
1	2199	1432
1	2189	1433
1	2188	1434
1	2198	1435
1	2215	1436
1	2237	1437
1	2262	1438
1	2279	1439
1	2302	1440
1	2325	1441
1	2344	1442
1	2370	1443
1	2402	1444
1	2435	1445
1	2473	1446
1	2512	1447
1	2552	1448
1	2590	1449
1	2640	1450
1	2674	1451
1	2712	1452
1	2734	1453
1	2750	1454
1	2763	1455
1	2778	1456
1	2795	1457
1	2818	1458
1	2845	1459
1	2876	1460
1	2908	1461
1	2937	1462
1	2958	1463
1	2968	1464
1	2976	1465
1	2978	1466
1	2971	1467
1	2975	1468
1	2990	1469
1	3010	1470
1	3028	1471
1	3048	1472
1	3062	1473
1	3076	1474
1	3086	1475
1	3093	1476
1	3101	1477
1	3123	1478
1	3130	1479
1	3130	1480
1	3130	1481
1	3130	1482
1	3130	1483
1	3130	1484
1	3130	1485
1	3130	1486
1	3130	1487
1	3130	1488
1	3130	1489
1	3130	1490
1	3130	1491
1	3130	1492
1	3130	1493
1	3130	1494
1	3130	1495
1	3130	1496
1	3130	1497
1	3130	1498
1	3130	1499
1	3130	1500
1	3130	1501
1	3130	1502
1	3130	1503
1	3130	1504
1	3130	1505
1	3130	1506
1	3130	1507
1	3130	1508
1	3130	1509
1	3130	1510
1	3130	1511
1	3130	1512
1	3130	1513
1	3130	1514
1	3130	1515
1	3130	1516
1	3130	1517
1	3130	1518
1	3130	1519
1	3130	1520
1	3130	1521
1	3130	1522
1	3130	1523
1	3130	1524
1	3130	1525
1	3130	1526
1	3130	1527
1	3130	1528
1	3130	1529
1	3130	1530
1	3130	1531
1	3130	1532
1	3130	1533
1	3130	1534
1	3130	1535
1	3130	1536
1	3130	1537
1	3130	1538
1	3130	1539
1	3130	1540
1	3130	1541
1	3130	1542
1	3130	1543
1	3130	1544
1	3130	1545
1	3130	1546
1	3130	1547
1	3130	1548
1	3130	1549
1	3130	1550
1	3130	1551
1	3130	1552
1	3130	1553
1	3130	1554
1	3130	1555
1	3130	1556
1	3130	1557
1	3130	1558
1	3130	1559
1	3130	1560
1	3130	1561
1	3130	1562
1	3130	1563
1	3130	1564
1	3130	1565
1	3130	1566
1	3130	1567
1	3130	1568
1	3130	1569
1	3130	1570
1	3130	1571
1	3130	1572
1	3130	1573
1	3130	1574
1	3130	1575
1	3130	1576
1	3130	1577
1	3130	1578
1	3130	1579
1	3130	1580
1	3130	1581
1	3130	1582
1	3130	1583
1	3130	1584
1	3130	1585
1	3130	1586
1	3130	1587
1	3130	1588
1	3130	1589
1	3130	1590
1	3130	1591
1	3130	1592
1	3130	1593
1	3130	1594
1	3130	1595
1	3130	1596
1	3130	1597
1	3130	1598
1	3130	1599
1	3130	1600
1	3130	1601
1	3130	1602
1	3130	1603
1	3130	1604
1	3130	1605
1	3130	1606
1	3130	1607
1	3130	1608
1	3130	1609
1	3130	1610
1	3130	1611
1	3130	1612
1	3130	1613
1	3130	1614
1	3130	1615
1	3130	1616
1	3130	1617
1	3130	1618
1	3130	1619
1	3130	1640
1	3130	1641
1	3130	1642
1	3130	1643
1	3130	1644
1	3130	1645
1	3130	1646
1	3130	1647
1	3130	1648
1	3130	1649
1	3130	1650
1	3130	1651
1	3130	1652
1	3130	1653
1	3130	1654
1	3130	1655
1	3130	1656
1	3130	1657
1	3130	1658
1	3130	1659
1	3130	1620
1	3130	1621
1	3130	1622
1	3130	1623
1	3130	1624
1	3130	1625
1	3130	1626
1	3130	1627
1	3130	1628
1	3130	1629
1	3130	1630
1	3130	1631
1	3130	1632
1	3130	1633
1	3130	1634
1	3130	1635
1	3130	1636
1	3130	1637
1	3130	1638
1	3130	1639
1	3130	1660
1	3130	1661
1	3130	1662
1	3130	1663
1	3130	1664
1	3130	1665
1	3130	1666
1	3130	1667
1	3130	1668
1	3130	1669
1	3130	1670
1	3130	1671
1	3130	1672
1	3130	1673
1	3130	1674
1	3130	1675
1	3130	1676
1	3130	1677
1	3130	1678
1	3130	1679
1	3130	1680
1	3130	1681
1	3130	1682
1	3130	1683
1	3130	1684
1	3130	1685
1	3130	1686
1	3130	1687
1	3130	1688
1	3130	1689
1	3130	1690
1	3130	1691
1	3130	1692
1	3130	1693
1	3130	1694
1	3130	1695
1	3130	1696
1	3130	1697
1	3130	1698
1	3130	1699
1	3130	1700
1	3130	1701
1	3130	1702
1	3130	1703
1	3130	1704
1	3130	1705
1	3130	1706
1	3130	1707
1	3130	1708
1	3130	1709
1	3130	1710
1	3130	1711
1	3130	1712
1	3130	1713
1	3130	1714
1	3130	1715
1	3130	1716
1	3130	1717
1	3130	1718
1	3130	1719
1	3130	1720
1	3130	1721
1	3130	1722
1	3130	1723
1	3130	1724
1	3130	1725
1	3130	1726
1	3130	1727
1	3130	1728
1	3130	1729
1	3130	1730
1	3130	1731
1	3130	1732
1	3130	1733
1	3130	1734
1	3130	1735
1	3130	1736
1	3130	1737
1	3130	1738
1	3130	1739
1	3130	1740
1	3130	1741
1	3130	1742
1	3130	1743
1	3130	1744
1	3130	1745
1	3130	1746
1	3130	1747
1	3130	1748
1	3130	1749
1	3130	1750
1	3130	1751
1	3130	1752
1	3130	1753
1	3130	1754
1	3130	1755
1	3130	1756
1	3130	1757
1	3130	1758
1	3130	1759
1	3130	1760
1	3130	1761
1	3130	1762
1	3130	1763
1	3130	1764
1	3130	1765
1	3130	1766
1	3130	1767
1	3130	1768
1	3130	1769
1	3130	1770
1	3130	1771
1	3130	1772
1	3130	1773
1	3130	1774
1	3084	1775
1	3043	1776
1	2996	1777
1	2961	1778
1	2922	1779
1	2886	1780
1	2856	1781
1	2828	1782
1	2799	1783
1	2767	1784
1	2737	1785
1	2706	1786
1	2672	1787
1	2640	1788
1	2622	1789
1	2611	1790
1	2612	1791
1	2626	1792
1	2641	1793
1	2656	1794
1	2679	1795
1	2707	1796
1	2734	1797
1	2756	1798
1	2771	1799
1	2779	1800
1	2779	1801
1	2770	1802
1	2753	1803
1	2737	1804
1	2717	1805
1	2692	1806
1	2668	1807
1	2643	1808
1	2619	1809
1	2599	1810
1	2585	1811
1	2579	1812
1	2568	1813
1	2553	1814
1	2537	1815
1	2525	1816
1	2520	1817
1	2514	1818
1	2511	1819
1	2531	1840
1	2496	1841
1	2444	1842
1	2390	1843
1	2328	1844
1	2287	1845
1	2247	1846
1	2209	1847
1	2171	1848
1	2133	1849
1	2101	1850
1	2071	1851
1	2053	1852
1	2030	1853
1	2014	1854
1	2005	1855
1	2014	1856
1	2028	1857
1	2026	1858
1	2001	1859
1	2508	1820
1	2502	1821
1	2504	1822
1	2507	1823
1	2514	1824
1	2522	1825
1	2536	1826
1	2558	1827
1	2585	1828
1	2609	1829
1	2631	1830
1	2649	1831
1	2662	1832
1	2665	1833
1	2667	1834
1	2666	1835
1	2656	1836
1	2644	1837
1	2617	1838
1	2572	1839
1	1971	1860
1	1931	1861
1	1883	1862
1	1832	1863
1	1783	1864
1	1737	1865
1	1693	1866
1	1647	1867
1	1609	1868
1	1569	1869
1	1529	1870
1	1492	1871
1	1472	1872
1	1454	1873
1	1438	1874
1	1422	1875
1	1400	1876
1	1382	1877
1	1361	1878
1	1346	1879
1	1337	1880
1	1345	1881
1	1368	1882
1	1384	1883
1	1403	1884
1	1411	1885
1	1413	1886
1	1409	1887
1	1404	1888
1	1413	1889
1	1428	1890
1	1450	1891
1	1476	1892
1	1503	1893
1	1526	1894
1	1542	1895
1	1554	1896
1	1563	1897
1	1561	1898
1	1554	1899
1	1548	1900
1	1551	1901
1	1557	1902
1	1571	1903
1	1581	1904
1	1583	1905
1	1579	1906
1	1571	1907
1	1560	1908
1	1555	1909
1	1543	1910
1	1526	1911
1	1503	1912
1	1467	1913
1	1418	1914
1	1356	1915
1	1296	1916
1	1245	1917
1	1207	1918
1	1183	1919
1	1166	1920
1	1161	1921
1	1166	1922
1	1180	1923
1	1205	1924
1	1228	1925
1	1241	1926
1	1256	1927
1	1273	1928
1	1291	1929
1	1309	1930
1	1321	1931
1	1322	1932
1	1308	1933
1	1282	1934
1	1249	1935
1	1210	1936
1	1160	1937
1	1096	1938
1	1040	1939
1	998	1940
1	975	1941
1	959	1942
1	949	1943
1	927	1944
1	911	1945
1	896	1946
1	876	1947
1	857	1948
1	847	1949
1	848	1950
1	859	1951
1	875	1952
1	902	1953
1	925	1954
1	941	1955
1	953	1956
1	971	1957
1	981	1958
1	993	1959
1	990	1960
1	979	1961
1	957	1962
1	936	1963
1	911	1964
1	886	1965
1	862	1966
1	846	1967
1	833	1968
1	823	1969
1	813	1970
1	798	1971
1	783	1972
1	769	1973
1	757	1974
1	752	1975
1	743	1976
1	729	1977
1	705	1978
1	679	1979
1	648	1980
1	612	1981
1	574	1982
1	531	1983
1	499	1984
1	495	1985
1	517	1986
1	576	1987
1	648	1988
1	722	1989
1	794	1990
1	855	1991
1	903	1992
1	945	1993
1	963	1994
1	965	1995
1	953	1996
1	932	1997
1	906	1998
1	882	1999
1	865	2000
1	846	2001
1	828	2002
1	810	2003
1	805	2004
1	806	2005
1	814	2006
1	824	2007
1	849	2008
1	887	2009
1	936	2010
1	983	2011
1	1024	2012
1	1057	2013
1	1083	2014
1	1109	2015
1	1127	2016
1	1148	2017
1	1174	2018
1	1202	2019
1	1241	2020
1	1279	2021
1	1323	2022
1	1370	2023
1	1422	2024
1	1467	2025
1	1508	2026
1	1551	2027
1	1589	2028
1	1622	2029
1	1647	2030
1	1667	2031
1	1703	2032
1	1746	2033
1	1789	2034
1	1819	2035
1	1839	2036
1	1842	2037
1	1828	2038
1	1791	2039
1	1767	2040
1	1737	2041
1	1699	2042
1	1651	2043
1	1598	2044
1	1544	2045
1	1495	2046
1	1446	2047
1	1400	2048
1	1357	2049
1	1323	2050
1	1302	2051
1	1301	2052
1	1299	2053
1	1301	2054
1	1302	2055
1	1304	2056
1	1310	2057
1	1309	2058
1	1306	2059
1	1301	2060
1	1298	2061
1	1301	2062
1	1311	2063
1	1323	2064
1	1346	2065
1	1373	2066
1	1403	2067
1	1425	2068
1	1437	2069
1	1450	2070
1	1463	2071
1	1476	2072
1	1482	2073
1	1487	2074
1	1490	2075
1	1492	2076
1	1500	2077
1	1508	2078
1	1524	2079
1	1529	2080
1	1520	2081
1	1502	2082
1	1474	2083
1	1440	2084
1	1410	2085
1	1382	2086
1	1370	2087
1	1357	2088
1	1350	2089
1	1349	2090
1	1351	2091
1	1359	2092
1	1358	2093
1	1346	2094
1	1323	2095
1	1296	2096
1	1271	2097
1	1250	2098
1	1233	2099
1	1224	2100
1	1223	2101
1	1225	2102
1	1232	2103
1	1242	2104
1	1256	2105
1	1265	2106
1	1267	2107
1	1265	2108
1	1256	2109
1	1247	2110
1	1238	2111
1	1220	2112
1	1206	2113
1	1193	2114
1	1186	2115
1	1175	2116
1	1162	2117
1	1140	2118
1	1126	2119
1	1111	2120
1	1101	2121
1	1096	2122
1	1085	2123
1	1072	2124
1	1057	2125
1	1035	2126
1	1017	2127
1	1001	2128
1	985	2129
1	972	2130
1	957	2131
1	945	2132
1	932	2133
1	930	2134
1	927	2135
1	921	2136
1	916	2137
1	909	2138
1	898	2139
1	887	2140
1	879	2141
1	861	2142
1	833	2143
1	796	2144
1	760	2145
1	727	2146
1	691	2147
1	665	2148
1	643	2149
1	621	2150
1	598	2151
1	575	2152
1	546	2153
1	521	2154
1	495	2155
1	480	2156
1	460	2157
1	443	2158
1	424	2159
1	399	2160
1	364	2161
1	324	2162
1	285	2163
1	243	2164
1	204	2165
1	179	2166
1	157	2167
1	146	2168
1	149	2169
1	155	2170
1	157	2171
1	158	2172
1	155	2173
1	146	2174
1	133	2175
1	128	2176
1	128	2177
1	128	2178
1	128	2179
1	128	2180
1	128	2181
1	128	2182
1	128	2183
1	128	2184
1	128	2185
1	128	2186
1	128	2187
1	128	2188
1	128	2189
1	128	2190
1	128	2191
1	128	2192
1	128	2193
1	128	2194
1	128	2195
1	128	2196
1	128	2197
1	128	2198
1	128	2199
1	128	2200
1	128	2201
1	128	2202
1	128	2203
1	128	2204
1	128	2205
1	128	2206
1	128	2207
1	128	2208
1	128	2209
1	128	2210
1	128	2211
1	128	2212
1	128	2213
1	128	2214
1	128	2215
1	128	2216
1	128	2217
1	128	2218
1	128	2219
1	128	2220
1	128	2221
1	128	2222
1	128	2223
1	128	2224
1	128	2225
1	128	2226
1	128	2227
1	128	2228
1	128	2229
1	128	2230
1	128	2231
1	128	2232
1	128	2233
1	128	2234
1	128	2235
1	128	2236
1	128	2237
1	128	2238
1	128	2239
1	128	2240
1	128	2241
1	128	2242
1	128	2243
1	128	2244
1	128	2245
1	128	2246
1	128	2247
1	128	2248
1	128	2249
1	128	2250
1	128	2251
1	128	2252
1	128	2253
1	128	2254
1	128	2255
1	128	2256
1	128	2257
1	128	2258
1	128	2259
1	128	2260
1	128	2261
1	128	2262
1	128	2263
1	128	2264
1	128	2265
1	128	2266
1	128	2267
1	128	2268
1	128	2269
1	128	2270
1	128	2271
1	128	2272
1	128	2273
1	128	2274
1	128	2275
1	128	2276
1	128	2277
1	128	2278
1	128	2279
1	128	2280
1	128	2281
1	128	2282
1	128	2283
1	128	2284
1	128	2285
1	128	2286
1	128	2287
1	128	2288
1	128	2289
1	128	2290
1	128	2291
1	128	2292
1	128	2293
1	128	2294
1	128	2295
1	128	2296
1	128	2297
1	128	2298
1	128	2299
1	128	2300
1	128	2301
1	128	2302
1	128	2303
1	128	2304
1	128	2305
1	128	2306
1	128	2307
1	128	2308
1	128	2309
1	128	2310
1	128	2311
1	128	2312
1	128	2313
1	128	2314
1	128	2315
1	128	2316
1	128	2317
1	128	2318
1	128	2319
1	128	2320
1	128	2321
1	128	2322
1	128	2323
1	128	2324
1	128	2325
1	128	2326
1	128	2327
1	128	2328
1	128	2329
1	128	2330
1	128	2331
1	128	2332
1	128	2333
1	128	2334
1	128	2335
1	128	2336
1	128	2337
1	128	2338
1	128	2339
1	128	2340
1	128	2341
1	128	2342
1	128	2343
1	128	2344
1	128	2345
1	128	2346
1	128	2347
1	128	2348
1	128	2349
1	128	2350
1	128	2351
1	128	2352
1	128	2353
1	128	2354
1	128	2355
1	128	2356
1	128	2357
1	128	2358
1	128	2359
1	128	2380
1	128	2381
1	128	2382
1	128	2383
1	128	2384
1	128	2385
1	128	2386
1	128	2387
1	128	2388
1	128	2389
1	128	2390
1	128	2391
1	128	2392
1	128	2393
1	128	2394
1	128	2395
1	128	2396
1	128	2397
1	128	2398
1	128	2399
1	128	2360
1	128	2361
1	128	2362
1	128	2363
1	128	2364
1	128	2365
1	128	2366
1	128	2367
1	128	2368
1	128	2369
1	128	2370
1	128	2371
1	128	2372
1	128	2373
1	128	2374
1	128	2375
1	128	2376
1	128	2377
1	128	2378
1	128	2379
1	128	2400
1	128	2401
1	128	2402
1	128	2403
1	128	2404
1	128	2405
1	128	2406
1	128	2407
1	128	2408
1	128	2409
1	128	2410
1	128	2411
1	128	2412
1	128	2413
1	128	2414
1	128	2415
1	128	2416
1	128	2417
1	128	2418
1	128	2419
1	128	2420
1	128	2421
1	128	2422
1	128	2423
1	128	2424
1	128	2425
1	128	2426
1	128	2427
1	128	2428
1	128	2429
1	128	2430
1	128	2431
1	128	2432
1	128	2433
1	128	2434
1	128	2435
1	128	2436
1	128	2437
1	128	2438
1	128	2439
1	128	2440
1	128	2441
1	128	2442
1	128	2443
1	128	2444
1	128	2445
1	128	2446
1	128	2447
1	128	2448
1	128	2449
1	128	2450
1	128	2451
1	128	2452
1	128	2453
1	128	2454
1	128	2455
1	128	2456
1	128	2457
1	128	2458
1	128	2459
1	128	2480
1	128	2481
1	128	2482
1	128	2483
1	128	2484
1	128	2485
1	128	2486
1	128	2487
1	128	2488
1	128	2489
1	128	2490
1	128	2491
1	128	2492
1	128	2493
1	128	2494
1	128	2495
1	128	2496
1	128	2497
1	128	2498
1	128	2499
1	128	2460
1	128	2461
1	128	2462
1	128	2463
1	128	2464
1	128	2465
1	128	2466
1	128	2467
1	128	2468
1	128	2469
1	128	2470
1	128	2471
1	128	2472
1	128	2473
1	128	2474
1	128	2475
1	128	2476
1	128	2477
1	128	2478
1	128	2479
1	128	2500
1	128	2501
1	128	2502
1	128	2503
1	128	2504
1	128	2505
1	128	2506
1	128	2507
1	128	2508
1	128	2509
1	128	2510
1	128	2511
1	128	2512
1	128	2513
1	128	2514
1	128	2515
1	128	2516
1	128	2517
1	128	2518
1	128	2519
1	128	2520
1	128	2521
1	128	2522
1	128	2523
1	128	2524
1	128	2525
1	128	2526
1	128	2527
1	128	2528
1	128	2529
1	128	2530
1	128	2531
1	128	2532
1	128	2533
1	128	2534
1	128	2535
1	128	2536
1	128	2537
1	128	2538
1	128	2539
1	128	2540
1	128	2541
1	128	2542
1	128	2543
1	128	2544
1	128	2545
1	128	2546
1	128	2547
1	128	2548
1	128	2549
1	128	2550
1	128	2551
1	128	2552
1	128	2553
1	128	2554
1	128	2555
1	128	2556
1	128	2557
1	128	2558
1	128	2559
1	128	2560
1	128	2561
1	128	2562
1	128	2563
1	128	2564
1	144	2565
1	178	2566
1	203	2567
1	224	2568
1	235	2569
1	247	2570
1	257	2571
1	270	2572
1	277	2573
1	285	2574
1	297	2575
1	306	2576
1	323	2577
1	334	2578
1	346	2579
1	361	2580
1	381	2581
1	405	2582
1	430	2583
1	452	2584
1	459	2585
1	469	2586
1	481	2587
1	489	2588
1	494	2589
1	487	2590
1	477	2591
1	460	2592
1	448	2593
1	441	2594
1	435	2595
1	429	2596
1	427	2597
1	425	2598
1	426	2599
1	430	2600
1	439	2601
1	453	2602
1	468	2603
1	486	2604
1	508	2605
1	523	2606
1	544	2607
1	566	2608
1	580	2609
1	587	2610
1	599	2611
1	618	2612
1	638	2613
1	652	2614
1	663	2615
1	675	2616
1	679	2617
1	668	2618
1	654	2619
1	635	2620
1	626	2621
1	617	2622
1	612	2623
1	603	2624
1	592	2625
1	586	2626
1	585	2627
1	586	2628
1	599	2629
1	620	2630
1	650	2631
1	678	2632
1	704	2633
1	721	2634
1	741	2635
1	752	2636
1	755	2637
1	743	2638
1	724	2639
1	699	2640
1	665	2641
1	631	2642
1	598	2643
1	574	2644
1	560	2645
1	564	2646
1	586	2647
1	618	2648
1	664	2649
1	706	2650
1	751	2651
1	800	2652
1	847	2653
1	896	2654
1	949	2655
1	1006	2656
1	1057	2657
1	1097	2658
1	1136	2659
1	1179	2660
1	1215	2661
1	1242	2662
1	1269	2663
1	1291	2664
1	1316	2665
1	1341	2666
1	1361	2667
1	1382	2668
1	1397	2669
1	1394	2670
1	1377	2671
1	1371	2672
1	1363	2673
1	1359	2674
1	1350	2675
1	1332	2676
1	1303	2677
1	1247	2678
1	1181	2679
1	1110	2680
1	1035	2681
1	963	2682
1	895	2683
1	833	2684
1	782	2685
1	748	2686
1	734	2687
1	736	2688
1	751	2689
1	777	2690
1	806	2691
1	840	2692
1	872	2693
1	900	2694
1	923	2695
1	936	2696
1	949	2697
1	969	2698
1	987	2699
1	1008	2700
1	1029	2701
1	1053	2702
1	1071	2703
1	1092	2704
1	1108	2705
1	1122	2706
1	1138	2707
1	1160	2708
1	1181	2709
1	1204	2710
1	1229	2711
1	1250	2712
1	1265	2713
1	1270	2714
1	1267	2715
1	1255	2716
1	1239	2717
1	1214	2718
1	1186	2719
1	1161	2740
1	1137	2741
1	1130	2742
1	1125	2743
1	1122	2744
1	1123	2745
1	1132	2746
1	1157	2747
1	1181	2748
1	1201	2749
1	1215	2750
1	1220	2751
1	1223	2752
1	1213	2753
1	1201	2754
1	1189	2755
1	1181	2756
1	1174	2757
1	1161	2758
1	1152	2759
1	1152	2740
1	1172	2741
1	1202	2742
1	1227	2743
1	1262	2744
1	1295	2745
1	1330	2746
1	1362	2747
1	1396	2748
1	1415	2749
1	1427	2750
1	1436	2751
1	1434	2752
1	1427	2753
1	1415	2754
1	1399	2755
1	1376	2756
1	1359	2757
1	1345	2758
1	1346	2759
1	1366	2760
1	1401	2761
1	1441	2762
1	1477	2763
1	1508	2764
1	1537	2765
1	1553	2766
1	1559	2767
1	1566	2768
1	1558	2769
1	1554	2770
1	1544	2771
1	1529	2772
1	1517	2773
1	1512	2774
1	1516	2775
1	1530	2776
1	1547	2777
1	1549	2778
1	1548	2779
1	1542	2780
1	1534	2781
1	1532	2782
1	1519	2783
1	1503	2784
1	1490	2785
1	1481	2786
1	1485	2787
1	1487	2788
1	1490	2789
1	1492	2790
1	1495	2791
1	1505	2792
1	1528	2793
1	1556	2794
1	1592	2795
1	1622	2796
1	1651	2797
1	1668	2798
1	1686	2799
1	1699	2800
1	1709	2801
1	1713	2802
1	1710	2803
1	1702	2804
1	1696	2805
1	1688	2806
1	1686	2807
1	1675	2808
1	1664	2809
1	1644	2810
1	1623	2811
1	1612	2812
1	1607	2813
1	1601	2814
1	1600	2815
1	1605	2816
1	1615	2817
1	1632	2818
1	1638	2819
1	1643	2820
1	1644	2821
1	1652	2822
1	1659	2823
1	1667	2824
1	1685	2825
1	1700	2826
1	1728	2827
1	1750	2828
1	1769	2829
1	1788	2830
1	1798	2831
1	1801	2832
1	1803	2833
1	1793	2834
1	1787	2835
1	1779	2836
1	1773	2837
1	1766	2838
1	1773	2839
1	1789	2840
1	1811	2841
1	1834	2842
1	1843	2843
1	1846	2844
1	1850	2845
1	1856	2846
1	1852	2847
1	1842	2848
1	1825	2849
1	1817	2850
1	1816	2851
1	1816	2852
1	1823	2853
1	1834	2854
1	1845	2855
1	1852	2856
1	1856	2857
1	1862	2858
1	1869	2859
1	1872	2860
1	1872	2861
1	1870	2862
1	1862	2863
1	1854	2864
1	1841	2865
1	1830	2866
1	1821	2867
1	1800	2868
1	1790	2869
1	1796	2870
1	1818	2871
1	1855	2872
1	1906	2873
1	1958	2874
1	2005	2875
1	2048	2876
1	2076	2877
1	2096	2878
1	2114	2879
1	2129	2880
1	2135	2881
1	2133	2882
1	2115	2883
1	2092	2884
1	2068	2885
1	2043	2886
1	2041	2887
1	2034	2888
1	2035	2889
1	2039	2890
1	2041	2891
1	2039	2892
1	2037	2893
1	2040	2894
1	2049	2895
1	2058	2896
1	2073	2897
1	2082	2898
1	2099	2899
1	2104	2900
1	2097	2901
1	2087	2902
1	2061	2903
1	2025	2904
1	1974	2905
1	1924	2906
1	1874	2907
1	1828	2908
1	1778	2909
1	1736	2910
1	1703	2911
1	1687	2912
1	1682	2913
1	1689	2914
1	1708	2915
1	1731	2916
1	1759	2917
1	1772	2918
1	1769	2919
1	1268	2940
1	1280	2941
1	1289	2942
1	1293	2943
1	1296	2944
1	1291	2945
1	1268	2946
1	1235	2947
1	1193	2948
1	1149	2949
1	1100	2950
1	1053	2951
1	1005	2952
1	949	2953
1	903	2954
1	869	2955
1	846	2956
1	837	2957
1	843	2958
1	854	2959
1	1755	2920
1	1735	2921
1	1713	2922
1	1695	2923
1	1670	2924
1	1641	2925
1	1606	2926
1	1571	2927
1	1533	2928
1	1503	2929
1	1476	2930
1	1449	2931
1	1423	2932
1	1400	2933
1	1368	2934
1	1332	2935
1	1306	2936
1	1280	2937
1	1265	2938
1	1258	2939
1	867	2960
1	874	2961
1	870	2962
1	851	2963
1	816	2964
1	778	2965
1	746	2966
1	709	2967
1	661	2968
1	612	2969
1	570	2970
1	535	2971
1	515	2972
1	506	2973
1	508	2974
1	508	2975
1	507	2976
1	493	2977
1	476	2978
1	455	2979
1	436	2980
1	410	2981
1	400	2982
1	409	2983
1	427	2984
1	433	2985
1	443	2986
1	455	2987
1	455	2988
1	455	2989
1	461	2990
1	459	2991
1	460	2992
1	461	2993
1	459	2994
1	448	2995
1	439	2996
1	429	2997
1	429	2998
1	450	2999
1	485	3000
1	521	3001
1	561	3002
1	580	3003
1	589	3004
1	597	3005
1	612	3006
1	634	3007
1	643	3008
1	648	3009
1	650	3010
1	661	3011
1	679	3012
1	703	3013
1	739	3014
1	774	3015
1	813	3016
1	851	3017
1	883	3018
1	912	3019
1	926	3020
1	928	3021
1	927	3022
1	922	3023
1	923	3024
1	937	3025
1	977	3026
1	1031	3027
1	1096	3028
1	1162	3029
1	1215	3030
1	1249	3031
1	1276	3032
1	1293	3033
1	1317	3034
1	1344	3035
1	1372	3036
1	1401	3037
1	1418	3038
1	1439	3039
1	1469	3040
1	1521	3041
1	1555	3042
1	1594	3043
1	1617	3044
1	1644	3045
1	1670	3046
1	1688	3047
1	1701	3048
1	1710	3049
1	1712	3050
1	1713	3051
1	1717	3052
1	1728	3053
1	1751	3054
1	1794	3055
1	1850	3056
1	1913	3057
1	1965	3058
1	2015	3059
1	2062	3060
1	2104	3061
1	2139	3062
1	2169	3063
1	2196	3064
1	2214	3065
1	2240	3066
1	2261	3067
1	2294	3068
1	2325	3069
1	2350	3070
1	2381	3071
1	2410	3072
1	2444	3073
1	2474	3074
1	2513	3075
1	2548	3076
1	2583	3077
1	2598	3078
1	2612	3079
1	2927	3100
1	2924	3101
1	2916	3102
1	2896	3103
1	2871	3104
1	2844	3105
1	2819	3106
1	2801	3107
1	2781	3108
1	2765	3109
1	2754	3110
1	2745	3111
1	2744	3112
1	2744	3113
1	2742	3114
1	2741	3115
1	2741	3116
1	2736	3117
1	2730	3118
1	2714	3119
1	2638	3080
1	2674	3081
1	2726	3082
1	2782	3083
1	2836	3084
1	2882	3085
1	2927	3086
1	2967	3087
1	3004	3088
1	3030	3089
1	3036	3090
1	3023	3091
1	2996	3092
1	2975	3093
1	2959	3094
1	2949	3095
1	2943	3096
1	2931	3097
1	2930	3098
1	2924	3099
1	2700	3120
1	2684	3121
1	2668	3122
1	2647	3123
1	2641	3124
1	2651	3125
1	2676	3126
1	2716	3127
1	2763	3128
1	2815	3129
1	2855	3130
1	2889	3131
1	2923	3132
1	2948	3133
1	2968	3134
1	2989	3135
1	3014	3136
1	3040	3137
1	3070	3138
1	3088	3139
1	3120	3140
1	3130	3141
1	3130	3142
1	3130	3143
1	3130	3144
1	3130	3145
1	3130	3146
1	3130	3147
1	3130	3148
1	3130	3149
1	3130	3150
1	3130	3151
1	3130	3152
1	3130	3153
1	3123	3154
1	3112	3155
1	3114	3156
1	3121	3157
1	3124	3158
1	3130	3159
1	3126	3160
1	3117	3161
1	3109	3162
1	3084	3163
1	3072	3164
1	3076	3165
1	3098	3166
1	3130	3167
1	3130	3168
1	3130	3169
1	3130	3170
1	3130	3171
1	3130	3172
1	3130	3173
1	3130	3174
1	3130	3175
1	3130	3176
1	3130	3177
1	3130	3178
1	3130	3179
1	3130	3180
1	3130	3181
1	3130	3182
1	3130	3183
1	3130	3184
1	3130	3185
1	3130	3186
1	3130	3187
1	3130	3188
1	3130	3189
1	3130	3190
1	3130	3191
1	3130	3192
1	3130	3193
1	3130	3194
1	3130	3195
1	3130	3196
1	3130	3197
1	3130	3198
1	3130	3199
1	3130	3200
1	3130	3201
1	3130	3202
1	3130	3203
1	3130	3204
1	3130	3205
1	3130	3206
1	3130	3207
1	3130	3208
1	3130	3209
1	3130	3210
1	3130	3211
1	3130	3212
1	3130	3213
1	3130	3214
1	3130	3215
1	3130	3216
1	3130	3217
1	3130	3218
1	3130	3219
1	3130	3260
1	3130	3261
1	3130	3262
1	3130	3263
1	3130	3264
1	3130	3265
1	3130	3266
1	3130	3267
1	3130	3268
1	3130	3269
1	3130	3270
1	3130	3271
1	3130	3272
1	3130	3273
1	3130	3274
1	3130	3275
1	3130	3276
1	3130	3277
1	3130	3278
1	3130	3279
1	3130	3240
1	3130	3241
1	3130	3242
1	3130	3243
1	3130	3244
1	3130	3245
1	3130	3246
1	3130	3247
1	3130	3248
1	3130	3249
1	3130	3250
1	3130	3251
1	3130	3252
1	3130	3253
1	3130	3254
1	3130	3255
1	3130	3256
1	3130	3257
1	3130	3258
1	3130	3259
1	3130	3220
1	3130	3221
1	3130	3222
1	3130	3223
1	3130	3224
1	3130	3225
1	3130	3226
1	3130	3227
1	3130	3228
1	3130	3229
1	3130	3230
1	3130	3231
1	3130	3232
1	3130	3233
1	3130	3234
1	3130	3235
1	3130	3236
1	3130	3237
1	3130	3238
1	3130	3239
1	3130	3280
1	3130	3281
1	3130	3282
1	3130	3283
1	3130	3284
1	3130	3285
1	3130	3286
1	3130	3287
1	3130	3288
1	3130	3289
1	3130	3290
1	3130	3291
1	3130	3292
1	3130	3293
1	3130	3294
1	3130	3295
1	3130	3296
1	3130	3297
1	3130	3298
1	3130	3299
1	3130	3300
1	3130	3301
1	3130	3302
1	3130	3303
1	3130	3304
1	3130	3305
1	3130	3306
1	3130	3307
1	3130	3308
1	3130	3309
1	3130	3310
1	3130	3311
1	3130	3312
1	3130	3313
1	3130	3314
1	3130	3315
1	3130	3316
1	3130	3317
1	3130	3318
1	3130	3319
1	3130	3320
1	3130	3321
1	3130	3322
1	3130	3323
1	3130	3324
1	3130	3325
1	3130	3326
1	3130	3327
1	3130	3328
1	3130	3329
1	3130	3330
1	3130	3331
1	3130	3332
1	3130	3333
1	3130	3334
1	3130	3335
1	3130	3336
1	3130	3337
1	3130	3338
1	3130	3339
1	3130	3340
1	3130	3341
1	3130	3342
1	3130	3343
1	3130	3344
1	3130	3345
1	3130	3346
1	3130	3347
1	3130	3348
1	3130	3349
1	3130	3350
1	3130	3351
1	3130	3352
1	3130	3353
1	3130	3354
1	3130	3355
1	3130	3356
1	3130	3357
1	3130	3358
1	3130	3359
1	3130	3360
1	3130	3361
1	3130	3362
1	3130	3363
1	3130	3364
1	3130	3365
1	3130	3366
1	3130	3367
1	3130	3368
1	3130	3369
1	3130	3370
1	3130	3371
1	3130	3372
1	3130	3373
1	3130	3374
1	3130	3375
1	3130	3376
1	3130	3377
1	3130	3378
1	3130	3379
1	3130	3380
1	3130	3381
1	3130	3382
1	3130	3383
1	3130	3384
1	3130	3385
1	3130	3386
1	3130	3387
1	3130	3388
1	3130	3389
1	3130	3390
1	3130	3391
1	3130	3392
1	3130	3393
1	3130	3394
1	3019	3395
1	2803	3396
1	2626	3397
1	2456	3398
1	2275	3399
1	2114	3400
1	1980	3401
1	1871	3402
1	1782	3403
1	1716	3404
1	1669	3405
1	1638	3406
1	1620	3407
1	1607	3408
1	1605	3409
1	1608	3410
1	1618	3411
1	1629	3412
1	1646	3413
1	1657	3414
1	1665	3415
1	1674	3416
1	1681	3417
1	1686	3418
1	1690	3419
1	1695	3420
1	1695	3421
1	1697	3422
1	1691	3423
1	1691	3424
1	1690	3425
1	1690	3426
1	1692	3427
1	1698	3428
1	1697	3429
1	1697	3430
1	1695	3431
1	1694	3432
1	1693	3433
1	1692	3434
1	1693	3435
1	1693	3436
1	1693	3437
1	1688	3438
1	1686	3439
1	1686	3440
1	1686	3441
1	1683	3442
1	1687	3443
1	1688	3444
1	1683	3445
1	1687	3446
1	1686	3447
1	1686	3448
1	1687	3449
1	1687	3450
1	1687	3451
1	1687	3452
1	1683	3453
1	1682	3454
1	1683	3455
1	1683	3456
1	1682	3457
1	1682	3458
1	1685	3459
1	1682	3460
1	1686	3461
1	1686	3462
1	1685	3463
1	1685	3464
1	1684	3465
1	1681	3466
1	1679	3467
1	1670	3468
1	1670	3469
1	1668	3470
1	1665	3471
1	1662	3472
1	1670	3473
1	1670	3474
1	1665	3475
1	1665	3476
1	1665	3477
1	1664	3478
1	1664	3479
1	1664	3480
1	1662	3481
1	1664	3482
1	1660	3483
1	1660	3484
1	1660	3485
1	1660	3486
1	1661	3487
1	1668	3488
1	1670	3489
1	1671	3490
1	1670	3491
1	1672	3492
1	1672	3493
1	1673	3494
1	1674	3495
1	1674	3496
1	1675	3497
1	1669	3498
1	1668	3499
1	1667	3500
1	1665	3501
1	1668	3502
1	1674	3503
1	1673	3504
1	1672	3505
1	1674	3506
1	1672	3507
1	1670	3508
1	1671	3509
1	1670	3510
1	1669	3511
1	1660	3512
1	1626	3513
1	1583	3514
1	1526	3515
1	1442	3516
1	1334	3517
1	1215	3518
1	1079	3519
1	943	3520
1	810	3521
1	678	3522
1	540	3523
1	408	3524
1	282	3525
1	158	3526
1	128	3527
1	128	3528
1	128	3529
1	128	3530
1	128	3531
1	128	3532
1	128	3533
1	128	3534
1	128	3535
1	128	3536
1	128	3537
1	128	3538
1	128	3539
1	128	3540
1	128	3541
1	128	3542
1	128	3543
1	128	3544
1	128	3545
1	128	3546
1	128	3547
1	128	3548
1	128	3549
1	128	3550
1	128	3551
1	128	3552
1	128	3553
1	128	3554
1	128	3555
1	128	3556
1	128	3557
1	128	3558
1	128	3559
1	128	3560
1	128	3561
1	128	3562
1	128	3563
1	128	3564
1	128	3565
1	128	3566
1	128	3567
1	128	3568
1	128	3569
1	128	3570
1	128	3571
1	128	3572
1	128	3573
1	128	3574
1	128	3575
1	128	3576
1	128	3577
1	128	3578
1	128	3579
1	128	3580
1	128	3581
1	128	3582
1	128	3583
1	128	3584
1	128	3585
1	128	3586
1	128	3587
1	128	3588
1	128	3589
1	128	3590
1	128	3591
1	128	3592
1	128	3593
1	128	3594
1	128	3595
1	128	3596
1	128	3597
1	128	3598
1	128	3599
1	128	3600
1	128	3601
1	128	3602
1	128	3603
1	128	3604
1	128	3605
1	128	3606
1	128	3607
1	128	3608
1	128	3609
1	128	3610
1	128	3611
1	128	3612
1	128	3613
1	128	3614
1	128	3615
1	128	3616
1	128	3617
1	128	3618
1	128	3619
1	128	3620
1	128	3621
1	128	3622
1	128	3623
1	128	3624
1	128	3625
1	128	3626
1	128	3627
1	128	3628
1	128	3629
1	128	3630
1	128	3631
1	128	3632
1	128	3633
1	128	3634
1	128	3635
1	128	3636
1	128	3637
1	128	3638
1	128	3639
1	128	3640
1	128	3641
1	128	3642
1	128	3643
1	128	3644
1	128	3645
1	128	3646
1	128	3647
1	128	3648
1	128	3649
1	128	3650
1	128	3651
1	128	3652
1	128	3653
1	128	3654
1	128	3655
1	128	3656
1	128	3657
1	128	3658
1	128	3659
1	128	3680
1	128	3681
1	128	3682
1	128	3683
1	128	3684
1	128	3685
1	128	3686
1	128	3687
1	128	3688
1	128	3689
1	128	3690
1	128	3691
1	128	3692
1	128	3693
1	128	3694
1	128	3695
1	128	3696
1	128	3697
1	128	3698
1	128	3699
1	128	3660
1	128	3661
1	128	3662
1	128	3663
1	128	3664
1	128	3665
1	128	3666
1	128	3667
1	128	3668
1	128	3669
1	128	3670
1	128	3671
1	128	3672
1	128	3673
1	128	3674
1	128	3675
1	128	3676
1	128	3677
1	128	3678
1	128	3679
1	128	3700
1	128	3701
1	128	3702
1	128	3703
1	128	3704
1	154	3705
1	315	3706
1	502	3707
1	691	3708
1	879	3709
1	1058	3710
1	1214	3711
1	1346	3712
1	1463	3713
1	1548	3714
1	1612	3715
1	1660	3716
1	1691	3717
1	1711	3718
1	1719	3719
1	1723	3720
1	1721	3721
1	1715	3722
1	1702	3723
1	1692	3724
1	1683	3725
1	1674	3726
1	1665	3727
1	1664	3728
1	1660	3729
1	1657	3730
1	1652	3731
1	1651	3732
1	1652	3733
1	1651	3734
1	1652	3735
1	1655	3736
1	1656	3737
1	1648	3738
1	1652	3739
1	1652	3740
1	1654	3741
1	1656	3742
1	1661	3743
1	1662	3744
1	1657	3745
1	1662	3746
1	1662	3747
1	1664	3748
1	1665	3749
1	1665	3750
1	1665	3751
1	1665	3752
1	1660	3753
1	1660	3754
1	1659	3755
1	1660	3756
1	1660	3757
1	1660	3758
1	1660	3759
1	1665	3760
1	1665	3761
1	1664	3762
1	1662	3763
1	1662	3764
1	1662	3765
1	1665	3766
1	1665	3767
1	1660	3768
1	1660	3769
1	1660	3770
1	1660	3771
1	1662	3772
1	1669	3773
1	1668	3774
1	1669	3775
1	1669	3776
1	1667	3777
1	1667	3778
1	1668	3779
1	1669	3780
1	1668	3781
1	1669	3782
1	1661	3783
1	1660	3784
1	1661	3785
1	1660	3786
1	1661	3787
1	1668	3788
1	1669	3789
1	1667	3790
1	1669	3791
1	1668	3792
1	1669	3793
1	1668	3794
1	1670	3795
1	1670	3796
1	1669	3797
1	1661	3798
1	1661	3799
1	1661	3800
1	1660	3801
1	1661	3802
1	1665	3803
1	1667	3804
1	1667	3805
1	1669	3806
1	1669	3807
1	1669	3808
1	1669	3809
1	1668	3810
1	1669	3811
1	1665	3812
1	1654	3813
1	1647	3814
1	1645	3815
1	1639	3816
1	1643	3817
1	1659	3818
1	1674	3819
1	1275	3840
1	1249	3841
1	1221	3842
1	1198	3843
1	1178	3844
1	1161	3845
1	1146	3846
1	1147	3847
1	1161	3848
1	1186	3849
1	1204	3850
1	1215	3851
1	1215	3852
1	1214	3853
1	1207	3854
1	1196	3855
1	1175	3856
1	1150	3857
1	1123	3858
1	1103	3859
1	1686	3820
1	1698	3821
1	1708	3822
1	1708	3823
1	1707	3824
1	1705	3825
1	1700	3826
1	1691	3827
1	1670	3828
1	1652	3829
1	1629	3830
1	1595	3831
1	1561	3832
1	1533	3833
1	1497	3834
1	1455	3835
1	1420	3836
1	1381	3837
1	1345	3838
1	1299	3839
1	1083	3860
1	1058	3861
1	1035	3862
1	1027	3863
1	1022	3864
1	1026	3865
1	1031	3866
1	1034	3867
1	1040	3868
1	1045	3869
1	1053	3870
1	1049	3871
1	1027	3872
1	995	3873
1	959	3874
1	927	3875
1	890	3876
1	852	3877
1	818	3878
1	780	3879
1	752	3880
1	731	3881
1	717	3882
1	710	3883
1	695	3884
1	678	3885
1	657	3886
1	636	3887
1	605	3888
1	577	3889
1	544	3890
1	520	3891
1	508	3892
1	507	3893
1	508	3894
1	515	3895
1	523	3896
1	526	3897
1	522	3898
1	507	3899
1	481	3900
1	441	3901
1	403	3902
1	365	3903
1	346	3904
1	345	3905
1	362	3906
1	390	3907
1	427	3908
1	458	3909
1	495	3910
1	533	3911
1	575	3912
1	611	3913
1	634	3914
1	642	3915
1	639	3916
1	621	3917
1	594	3918
1	559	3919
1	511	3920
1	469	3921
1	429	3922
1	400	3923
1	366	3924
1	344	3925
1	325	3926
1	310	3927
1	288	3928
1	267	3929
1	245	3930
1	230	3931
1	220	3932
1	217	3933
1	225	3934
1	246	3935
1	278	3936
1	316	3937
1	362	3938
1	404	3939
1	433	3940
1	471	3941
1	497	3942
1	522	3943
1	545	3944
1	577	3945
1	598	3946
1	612	3947
1	621	3948
1	625	3949
1	625	3950
1	625	3951
1	639	3952
1	661	3953
1	691	3954
1	739	3955
1	795	3956
1	857	3957
1	917	3958
1	972	3959
1	1009	3960
1	1034	3961
1	1042	3962
1	1032	3963
1	1018	3964
1	998	3965
1	965	3966
1	927	3967
1	874	3968
1	818	3969
1	744	3970
1	667	3971
1	581	3972
1	487	3973
1	410	3974
1	355	3975
1	309	3976
1	272	3977
1	247	3978
1	243	3979
1	247	3980
1	262	3981
1	287	3982
1	319	3983
1	349	3984
1	373	3985
1	381	3986
1	385	3987
1	381	3988
1	373	3989
1	364	3990
1	363	3991
1	369	3992
1	377	3993
1	384	3994
1	396	3995
1	418	3996
1	445	3997
1	482	3998
1	533	3999
1	587	4000
1	646	4001
1	702	4002
1	752	4003
1	793	4004
1	818	4005
1	830	4006
1	834	4006
1	825	4008
1	810	4009
1	792	4010
1	769	4011
1	751	4012
1	742	4013
1	731	4014
1	723	4014
1	724	4016
1	733	4017
1	751	4018
1	778	4019
1	807	4020
1	828	4021
1	845	4022
1	853	4022
1	864	4024
1	874	4025
1	886	4026
1	900	4027
1	914	4028
1	927	4029
1	936	4030
1	937	4030
1	927	4032
1	903	4033
1	874	4034
1	833	4035
1	786	4036
1	741	4037
1	693	4038
1	661	4038
1	638	4040
1	612	4041
1	596	4042
1	586	4043
1	569	4044
1	558	4045
1	556	4046
1	556	4046
1	566	4048
1	585	4049
1	603	4050
1	630	4051
1	657	4052
1	679	4053
1	704	4054
1	723	4054
1	743	4056
1	760	4057
1	782	4058
1	798	4059
1	703	4080
1	692	4081
1	673	4082
1	647	4083
1	626	4084
1	617	4085
1	622	4086
1	638	4086
1	657	4088
1	679	4089
1	704	4090
1	738	4091
1	782	4092
1	837	4093
1	894	4094
1	942	4094
1	988	4096
1	1018	4097
1	1031	4098
1	1032	4099
1	810	4060
1	817	4061
1	818	4062
1	809	4062
1	796	4064
1	780	4065
1	762	4066
1	743	4067
1	727	4068
1	717	4069
1	707	4070
1	702	4070
1	701	4072
1	710	4073
1	714	4074
1	713	4075
1	706	4076
1	702	4077
1	700	4078
1	704	4078
1	1018	4100
1	998	4101
1	979	4102
1	962	4103
1	952	4104
1	937	4105
1	927	4106
1	924	4107
1	927	4108
1	927	4109
1	926	4110
1	927	4111
1	932	4112
1	938	4113
1	942	4114
1	951	4115
1	960	4116
1	975	4117
1	987	4118
1	996	4119
1	1005	4120
1	1016	4121
1	1021	4122
1	1021	4123
1	1019	4124
1	1017	4125
1	1018	4126
1	1028	4127
1	1036	4128
1	1058	4129
1	1078	4130
1	1095	4131
1	1112	4132
1	1136	4133
1	1157	4134
1	1173	4135
1	1175	4136
1	1152	4137
1	1110	4138
1	1058	4139
1	1027	4140
1	988	4141
1	951	4142
1	921	4143
1	895	4144
1	875	4145
1	861	4146
1	854	4147
1	847	4148
1	854	4149
1	869	4150
1	896	4151
1	931	4152
1	970	4153
1	1004	4154
1	1027	4155
1	1047	4156
1	1056	4157
1	1057	4158
1	1047	4159
1	1045	4160
1	1044	4161
1	1047	4162
1	1056	4163
1	1056	4164
1	1055	4165
1	1048	4166
1	1040	4167
1	1040	4168
1	1042	4169
1	1042	4170
1	1033	4171
1	1026	4172
1	1013	4173
1	1005	4174
1	996	4175
1	993	4176
1	988	4177
1	988	4178
1	980	4179
1	965	4180
1	954	4181
1	953	4182
1	952	4183
1	953	4184
1	958	4185
1	978	4186
1	998	4187
1	1018	4188
1	1035	4189
1	1055	4190
1	1069	4191
1	1078	4192
1	1090	4193
1	1107	4194
1	1116	4195
1	1128	4196
1	1137	4197
1	1149	4198
1	1155	4199
1	1156	4200
1	1152	4201
1	1143	4202
1	1128	4203
1	1112	4204
1	1091	4205
1	1075	4206
1	1063	4207
1	1063	4208
1	1058	4209
1	1060	4210
1	1068	4211
1	1077	4212
1	1086	4213
1	1099	4214
1	1116	4215
1	1141	4216
1	1163	4217
1	1171	4218
1	1177	4219
1	1188	4220
1	1201	4221
1	1215	4222
1	1225	4223
1	1224	4224
1	1219	4225
1	1213	4226
1	1206	4227
1	1205	4228
1	1203	4229
1	1202	4230
1	1193	4231
1	1191	4232
1	1188	4233
1	1185	4234
1	1181	4235
1	1175	4236
1	1162	4237
1	1153	4238
1	1134	4239
1	1121	4240
1	1112	4241
1	1101	4242
1	1089	4243
1	1076	4244
1	1063	4245
1	1052	4246
1	1040	4247
1	1035	4248
1	1047	4249
1	1062	4250
1	1080	4251
1	1091	4252
1	1098	4253
1	1110	4254
1	1120	4255
1	1135	4256
1	1152	4257
1	1162	4258
1	1164	4259
1	1164	4260
1	1166	4261
1	1168	4262
1	1163	4263
1	1160	4264
1	1148	4265
1	1134	4266
1	1114	4267
1	1109	4268
1	1097	4269
1	1084	4270
1	1066	4271
1	1048	4272
1	1033	4273
1	1027	4274
1	1025	4275
1	1031	4276
1	1047	4277
1	1058	4278
1	1072	4279
1	1089	4280
1	1111	4281
1	1128	4282
1	1144	4283
1	1149	4284
1	1148	4285
1	1143	4286
1	1136	4287
1	1127	4288
1	1110	4289
1	1088	4290
1	1063	4291
1	1045	4292
1	1027	4293
1	1016	4294
1	1005	4295
1	1004	4296
1	1006	4297
1	1019	4298
1	1031	4299
1	1056	4300
1	1088	4301
1	1130	4302
1	1162	4303
1	1183	4304
1	1193	4305
1	1198	4306
1	1202	4307
1	1202	4308
1	1211	4309
1	1219	4310
1	1229	4311
1	1247	4312
1	1273	4313
1	1287	4314
1	1287	4315
1	1273	4316
1	1255	4317
1	1241	4318
1	1239	4319
1	1246	4320
1	1267	4321
1	1293	4322
1	1319	4323
1	1351	4324
1	1384	4325
1	1417	4326
1	1438	4327
1	1464	4328
1	1481	4329
1	1491	4330
1	1495	4331
1	1492	4332
1	1491	4333
1	1494	4334
1	1489	4335
1	1478	4336
1	1462	4337
1	1437	4338
1	1425	4339
1	1415	4340
1	1404	4341
1	1399	4342
1	1409	4343
1	1417	4344
1	1423	4345
1	1437	4346
1	1439	4347
1	1435	4348
1	1428	4349
1	1424	4350
1	1420	4351
1	1413	4352
1	1412	4353
1	1413	4354
1	1415	4355
1	1422	4356
1	1423	4357
1	1422	4358
1	1422	4359
1	1423	4360
1	1429	4361
1	1431	4362
1	1435	4363
1	1441	4364
1	1451	4365
1	1468	4366
1	1482	4367
1	1492	4368
1	1503	4369
1	1503	4370
1	1501	4371
1	1489	4372
1	1479	4373
1	1458	4374
1	1431	4375
1	1406	4376
1	1384	4377
1	1373	4378
1	1379	4379
1	1503	4400
1	1519	4401
1	1534	4402
1	1554	4403
1	1561	4404
1	1559	4405
1	1551	4406
1	1540	4407
1	1529	4408
1	1528	4409
1	1530	4410
1	1539	4411
1	1544	4412
1	1545	4413
1	1552	4414
1	1562	4415
1	1577	4416
1	1595	4417
1	1619	4418
1	1637	4419
1	1393	4400
1	1402	4401
1	1419	4402
1	1422	4403
1	1430	4404
1	1443	4405
1	1446	4406
1	1447	4407
1	1444	4408
1	1437	4409
1	1424	4410
1	1405	4411
1	1396	4412
1	1398	4413
1	1409	4414
1	1423	4415
1	1436	4416
1	1452	4417
1	1468	4418
1	1484	4419
1	1658	4420
1	1679	4421
1	1695	4422
1	1698	4423
1	1692	4424
1	1677	4425
1	1659	4426
1	1639	4427
1	1613	4428
1	1589	4429
1	1561	4430
1	1535	4431
1	1510	4432
1	1497	4433
1	1487	4434
1	1481	4435
1	1478	4436
1	1469	4437
1	1456	4438
1	1451	4439
1	1634	4460
1	1669	4461
1	1698	4462
1	1726	4463
1	1741	4464
1	1751	4465
1	1755	4466
1	1749	4467
1	1733	4468
1	1707	4469
1	1681	4470
1	1655	4471
1	1631	4472
1	1600	4473
1	1581	4474
1	1562	4475
1	1551	4476
1	1543	4477
1	1544	4478
1	1544	4479
1	1557	4480
1	1577	4481
1	1594	4482
1	1609	4483
1	1625	4484
1	1634	4485
1	1643	4486
1	1647	4487
1	1642	4488
1	1638	4489
1	1634	4490
1	1633	4491
1	1634	4492
1	1648	4493
1	1663	4494
1	1683	4495
1	1705	4496
1	1724	4497
1	1746	4498
1	1764	4499
1	1462	4440
1	1487	4441
1	1515	4442
1	1546	4443
1	1572	4444
1	1592	4445
1	1607	4446
1	1616	4447
1	1622	4448
1	1620	4449
1	1607	4450
1	1589	4451
1	1574	4452
1	1555	4453
1	1548	4454
1	1549	4455
1	1553	4456
1	1559	4457
1	1571	4458
1	1599	4459
1	1769	4500
1	1762	4501
1	1741	4502
1	1712	4503
1	1680	4504
1	1636	4505
1	1590	4506
1	1557	4507
1	1539	4508
1	1541	4509
1	1555	4510
1	1579	4511
1	1600	4512
1	1625	4513
1	1646	4514
1	1661	4515
1	1673	4516
1	1688	4517
1	1697	4518
1	1710	4519
1	1715	4520
1	1723	4521
1	1727	4522
1	1734	4523
1	1729	4524
1	1715	4525
1	1698	4526
1	1678	4527
1	1652	4528
1	1624	4529
1	1594	4530
1	1570	4531
1	1562	4532
1	1562	4533
1	1574	4534
1	1581	4535
1	1582	4536
1	1581	4537
1	1581	4538
1	1575	4539
1	1709	4560
1	1718	4561
1	1731	4562
1	1738	4563
1	1751	4564
1	1760	4565
1	1764	4566
1	1764	4567
1	1761	4568
1	1746	4569
1	1731	4570
1	1718	4571
1	1710	4572
1	1700	4573
1	1687	4574
1	1677	4575
1	1668	4576
1	1658	4577
1	1643	4578
1	1637	4579
1	1580	4540
1	1594	4541
1	1613	4542
1	1646	4543
1	1683	4544
1	1716	4545
1	1744	4546
1	1760	4547
1	1764	4548
1	1764	4549
1	1763	4550
1	1754	4551
1	1741	4552
1	1729	4553
1	1719	4554
1	1707	4555
1	1698	4556
1	1703	4557
1	1700	4558
1	1701	4559
1	1634	4580
1	1634	4581
1	1638	4582
1	1648	4583
1	1657	4584
1	1668	4585
1	1685	4586
1	1703	4587
1	1728	4588
1	1764	4589
1	1816	4590
1	1857	4591
1	1895	4592
1	1917	4593
1	1937	4594
1	1952	4595
1	1972	4596
1	1994	4597
1	2022	4598
1	2039	4599
1	2054	4600
1	2073	4601
1	2086	4602
1	2094	4603
1	2103	4604
1	2106	4605
1	2122	4606
1	2147	4607
1	2173	4608
1	2228	4609
1	2287	4610
1	2344	4611
1	2392	4612
1	2431	4613
1	2446	4614
1	2445	4615
1	2425	4616
1	2381	4617
1	2319	4618
1	2244	4619
1	2143	4620
1	2032	4621
1	1922	4622
1	1811	4623
1	1704	4624
1	1613	4625
1	1553	4626
1	1508	4627
1	1498	4628
1	1503	4629
1	1537	4630
1	1580	4631
1	1619	4632
1	1654	4633
1	1686	4634
1	1718	4635
1	1751	4636
1	1783	4637
1	1809	4638
1	1838	4639
1	1843	4660
1	1844	4661
1	1841	4662
1	1841	4663
1	1848	4664
1	1862	4665
1	1878	4666
1	1886	4667
1	1880	4668
1	1881	4669
1	1885	4670
1	1886	4671
1	1880	4672
1	1878	4673
1	1878	4674
1	1895	4675
1	1910	4676
1	1927	4677
1	1949	4678
1	1973	4679
1	1987	4680
1	1998	4681
1	1999	4682
1	1989	4683
1	1981	4684
1	1971	4685
1	1961	4686
1	1948	4687
1	1943	4688
1	1926	4689
1	1911	4690
1	1900	4691
1	1897	4692
1	1901	4693
1	1917	4694
1	1924	4695
1	1935	4696
1	1948	4697
1	1960	4698
1	1983	4699
1	2011	4700
1	2034	4701
1	2052	4702
1	2068	4703
1	2066	4704
1	2052	4705
1	2028	4706
1	2012	4707
1	2000	4708
1	1993	4709
1	1992	4710
1	1998	4711
1	2007	4712
1	2008	4713
1	2012	4714
1	2007	4715
1	2003	4716
1	1998	4717
1	2000	4718
1	2009	4719
1	1856	4640
1	1872	4641
1	1886	4642
1	1904	4643
1	1911	4644
1	1908	4645
1	1907	4646
1	1893	4647
1	1875	4648
1	1859	4649
1	1852	4650
1	1844	4651
1	1845	4652
1	1847	4653
1	1854	4654
1	1857	4655
1	1860	4656
1	1859	4657
1	1856	4658
1	1854	4659
1	2030	4720
1	2061	4721
1	2095	4722
1	2129	4723
1	2154	4724
1	2161	4725
1	2166	4726
1	2165	4727
1	2155	4728
1	2143	4729
1	2131	4730
1	2122	4731
1	2115	4732
1	2115	4733
1	2109	4734
1	2106	4735
1	2105	4736
1	2106	4737
1	2117	4738
1	2135	4739
1	2156	4740
1	2182	4741
1	2195	4742
1	2194	4743
1	2188	4744
1	2183	4745
1	2175	4746
1	2170	4747
1	2162	4748
1	2153	4749
1	2138	4750
1	2124	4751
1	2124	4752
1	2119	4753
1	2118	4754
1	2118	4755
1	2120	4756
1	2122	4757
1	2117	4758
1	2111	4759
1	2101	4760
1	2092	4761
1	2084	4762
1	2083	4763
1	2066	4764
1	2049	4765
1	2034	4766
1	2027	4767
1	2027	4768
1	2031	4769
1	2036	4770
1	2039	4771
1	2041	4772
1	2041	4773
1	2058	4774
1	2083	4775
1	2113	4776
1	2146	4777
1	2183	4778
1	2210	4779
1	2232	4780
1	2242	4781
1	2254	4782
1	2262	4783
1	2265	4784
1	2262	4785
1	2257	4786
1	2244	4787
1	2220	4788
1	2208	4789
1	2194	4790
1	2186	4791
1	2181	4792
1	2179	4793
1	2170	4794
1	2160	4795
1	2147	4796
1	2131	4797
1	2115	4798
1	2105	4799
1	2096	4800
1	2093	4801
1	2096	4802
1	2097	4803
1	2109	4804
1	2126	4805
1	2140	4806
1	2152	4807
1	2168	4808
1	2179	4809
1	2197	4810
1	2221	4811
1	2250	4812
1	2276	4813
1	2299	4814
1	2318	4815
1	2337	4816
1	2343	4817
1	2336	4818
1	2323	4819
1	2305	4820
1	2282	4821
1	2262	4822
1	2246	4823
1	2210	4824
1	2172	4825
1	2136	4826
1	2100	4827
1	2070	4828
1	2057	4829
1	2065	4830
1	2084	4831
1	2110	4832
1	2120	4833
1	2130	4834
1	2139	4835
1	2144	4836
1	2147	4837
1	2146	4838
1	2129	4839
1	2117	4840
1	2105	4841
1	2079	4842
1	2052	4843
1	2019	4844
1	1985	4845
1	1955	4846
1	1939	4847
1	1932	4848
1	1933	4849
1	1945	4850
1	1961	4851
1	1979	4852
1	2003	4853
1	2026	4854
1	2048	4855
1	2070	4856
1	2089	4857
1	2104	4858
1	2109	4859
1	2109	4860
1	2106	4861
1	2093	4862
1	2075	4863
1	2057	4864
1	2043	4865
1	2032	4866
1	2024	4867
1	2022	4868
1	2011	4869
1	2000	4870
1	1998	4871
1	1998	4872
1	1998	4873
1	1999	4874
1	1997	4875
1	1996	4876
1	1996	4877
1	1987	4878
1	1983	4879
1	1978	4880
1	1975	4881
1	1967	4882
1	1961	4883
1	1953	4884
1	1959	4885
1	1972	4886
1	1985	4887
1	1989	4888
1	1991	4889
1	1988	4890
1	1987	4891
1	1983	4892
1	1973	4893
1	1969	4894
1	1967	4895
1	1968	4896
1	1974	4897
1	1991	4898
1	1998	4899
1	1993	4900
1	1993	4901
1	1990	4902
1	1983	4903
1	1974	4904
1	1965	4905
1	1958	4906
1	1953	4907
1	1948	4908
1	1948	4909
1	1953	4910
1	1958	4911
1	1958	4912
1	1959	4913
1	1945	4914
1	1921	4915
1	1904	4916
1	1896	4917
1	1902	4918
1	1914	4919
1	1927	4940
1	1936	4941
1	1943	4942
1	1944	4943
1	1952	4944
1	1963	4945
1	1968	4946
1	1968	4947
1	1974	4948
1	1973	4949
1	1973	4950
1	1977	4951
1	1979	4952
1	1975	4953
1	1983	4954
1	1998	4955
1	2013	4956
1	2030	4957
1	2029	4958
1	2026	4959
1	2014	4940
1	1991	4941
1	1966	4942
1	1952	4943
1	1934	4944
1	1919	4945
1	1909	4946
1	1895	4947
1	1890	4948
1	1895	4949
1	1899	4950
1	1913	4951
1	1929	4952
1	1945	4953
1	1958	4954
1	1972	4955
1	1977	4956
1	1987	4957
1	1995	4958
1	1991	4959
1	1985	4960
1	1972	4961
1	1959	4962
1	1948	4963
1	1939	4964
1	1932	4965
1	1930	4966
1	1930	4967
1	1922	4968
1	1917	4969
1	1908	4970
1	1895	4971
1	1882	4972
1	1881	4973
1	1878	4974
1	1879	4975
1	1886	4976
1	1891	4977
1	1895	4978
1	1904	4979
1	1916	4980
1	1926	4981
1	1932	4982
1	1922	4983
1	1908	4984
1	1875	4985
1	1835	4986
1	1790	4987
1	1760	4988
1	1738	4989
1	1734	4990
1	1742	4991
1	1757	4992
1	1776	4993
1	1798	4994
1	1822	4995
1	1841	4996
1	1856	4997
1	1862	4998
1	1869	4999
1	1877	5000
1	1882	5001
1	1888	5002
1	1899	5003
1	1904	5004
1	1909	5005
1	1913	5006
1	1922	5007
1	1931	5008
1	1947	5009
1	1958	5010
1	1964	5011
1	1968	5012
1	1964	5013
1	1970	5014
1	1971	5015
1	1970	5016
1	1968	5017
1	1971	5018
1	1958	5019
1	1939	5020
1	1918	5021
1	1899	5022
1	1887	5023
1	1884	5024
1	1890	5025
1	1899	5026
1	1908	5027
1	1907	5028
1	1900	5029
1	1888	5030
1	1869	5031
1	1852	5032
1	1845	5033
1	1845	5034
1	1856	5035
1	1869	5036
1	1878	5037
1	1882	5038
1	1881	5039
1	1869	5040
1	1859	5041
1	1850	5042
1	1843	5043
1	1830	5044
1	1821	5045
1	1822	5046
1	1838	5047
1	1859	5048
1	1882	5049
1	1899	5050
1	1916	5051
1	1919	5052
1	1913	5053
1	1912	5054
1	1909	5055
1	1903	5056
1	1895	5057
1	1877	5058
1	1868	5059
1	1845	5080
1	1839	5081
1	1828	5082
1	1819	5083
1	1811	5084
1	1796	5085
1	1791	5086
1	1791	5087
1	1796	5088
1	1818	5089
1	1843	5090
1	1857	5091
1	1867	5092
1	1868	5093
1	1858	5094
1	1852	5095
1	1850	5096
1	1854	5097
1	1848	5098
1	1848	5099
1	1861	5060
1	1859	5061
1	1856	5062
1	1855	5063
1	1843	5064
1	1832	5065
1	1816	5066
1	1800	5067
1	1788	5068
1	1785	5069
1	1786	5070
1	1792	5071
1	1796	5072
1	1795	5073
1	1812	5074
1	1827	5075
1	1844	5076
1	1856	5077
1	1862	5078
1	1856	5079
1	1844	5100
1	1838	5101
1	1818	5102
1	1791	5103
1	1775	5104
1	1766	5105
1	1767	5106
1	1769	5107
1	1775	5108
1	1777	5109
1	1772	5110
1	1764	5111
1	1751	5112
1	1737	5113
1	1720	5114
1	1712	5115
1	1709	5116
1	1707	5117
1	1701	5118
1	1708	5119
1	1715	5120
1	1733	5121
1	1755	5122
1	1786	5123
1	1801	5124
1	1811	5125
1	1814	5126
1	1808	5127
1	1799	5128
1	1785	5129
1	1773	5130
1	1760	5131
1	1743	5132
1	1725	5133
1	1717	5134
1	1724	5135
1	1738	5136
1	1764	5137
1	1791	5138
1	1811	5139
1	1808	5140
1	1808	5141
1	1778	5142
1	1755	5143
1	1737	5144
1	1713	5145
1	1692	5146
1	1675	5147
1	1670	5148
1	1676	5149
1	1691	5150
1	1710	5151
1	1726	5152
1	1739	5153
1	1760	5154
1	1778	5155
1	1809	5156
1	1832	5157
1	1848	5158
1	1857	5159
1	1865	5160
1	1869	5161
1	1868	5162
1	1856	5163
1	1848	5164
1	1844	5165
1	1844	5166
1	1845	5167
1	1851	5168
1	1842	5169
1	1820	5170
1	1796	5171
1	1775	5172
1	1760	5173
1	1749	5174
1	1737	5175
1	1728	5176
1	1720	5177
1	1708	5178
1	1700	5179
1	1691	5180
1	1678	5181
1	1665	5182
1	1668	5183
1	1665	5184
1	1661	5185
1	1655	5186
1	1648	5187
1	1647	5188
1	1651	5189
1	1661	5190
1	1675	5191
1	1694	5192
1	1707	5193
1	1718	5194
1	1722	5195
1	1711	5196
1	1699	5197
1	1697	5198
1	1698	5199
1	1705	5200
1	1712	5201
1	1718	5202
1	1724	5203
1	1733	5204
1	1740	5205
1	1747	5206
1	1742	5207
1	1725	5208
1	1701	5209
1	1660	5210
1	1613	5211
1	1578	5212
1	1561	5213
1	1557	5214
1	1562	5215
1	1579	5216
1	1600	5217
1	1629	5218
1	1657	5219
1	1686	5220
1	1712	5221
1	1737	5222
1	1741	5223
1	1750	5224
1	1751	5225
1	1743	5226
1	1738	5227
1	1746	5228
1	1751	5229
1	1764	5230
1	1778	5231
1	1793	5232
1	1811	5233
1	1818	5234
1	1814	5235
1	1792	5236
1	1769	5237
1	1736	5238
1	1703	5239
1	1675	5240
1	1655	5241
1	1639	5242
1	1634	5243
1	1634	5244
1	1646	5245
1	1672	5246
1	1688	5247
1	1701	5248
1	1716	5249
1	1749	5250
1	1782	5251
1	1822	5252
1	1850	5253
1	1883	5254
1	1922	5255
1	1962	5256
1	2004	5257
1	2055	5258
1	2107	5259
1	2163	5260
1	2200	5261
1	2230	5262
1	2236	5263
1	2218	5264
1	2183	5265
1	2137	5266
1	2084	5267
1	2021	5268
1	1953	5269
1	1890	5270
1	1818	5271
1	1744	5272
1	1685	5273
1	1617	5274
1	1553	5275
1	1494	5276
1	1450	5277
1	1423	5278
1	1401	5279
1	1394	5280
1	1395	5281
1	1398	5282
1	1399	5283
1	1411	5284
1	1427	5285
1	1448	5286
1	1463	5287
1	1486	5288
1	1501	5289
1	1508	5290
1	1513	5291
1	1508	5292
1	1503	5293
1	1503	5294
1	1508	5295
1	1525	5296
1	1547	5297
1	1567	5298
1	1589	5299
1	1607	5300
1	1628	5301
1	1652	5302
1	1682	5303
1	1692	5304
1	1690	5305
1	1681	5306
1	1665	5307
1	1646	5308
1	1619	5309
1	1584	5310
1	1554	5311
1	1526	5312
1	1503	5313
1	1500	5314
1	1507	5315
1	1523	5316
1	1544	5317
1	1575	5318
1	1602	5319
1	1633	5320
1	1662	5321
1	1697	5322
1	1723	5323
1	1739	5324
1	1743	5325
1	1737	5326
1	1720	5327
1	1695	5328
1	1671	5329
1	1644	5330
1	1607	5331
1	1569	5332
1	1542	5333
1	1526	5334
1	1525	5335
1	1538	5336
1	1555	5337
1	1579	5338
1	1608	5339
1	1634	5340
1	1660	5341
1	1681	5342
1	1686	5343
1	1686	5344
1	1672	5345
1	1652	5346
1	1631	5347
1	1607	5348
1	1593	5349
1	1583	5350
1	1590	5351
1	1595	5352
1	1603	5353
1	1611	5354
1	1620	5355
1	1629	5356
1	1638	5357
1	1647	5358
1	1665	5359
1	1688	5360
1	1714	5361
1	1733	5362
1	1744	5363
1	1741	5364
1	1738	5365
1	1737	5366
1	1738	5367
1	1738	5368
1	1742	5369
1	1743	5370
1	1746	5371
1	1744	5372
1	1733	5373
1	1724	5374
1	1721	5375
1	1728	5376
1	1739	5377
1	1757	5378
1	1769	5379
1	1785	5380
1	1800	5381
1	1817	5382
1	1821	5383
1	1818	5384
1	1811	5385
1	1791	5386
1	1773	5387
1	1744	5388
1	1718	5389
1	1692	5390
1	1665	5391
1	1647	5392
1	1638	5393
1	1636	5394
1	1646	5395
1	1664	5396
1	1693	5397
1	1717	5398
1	1752	5399
1	1787	5400
1	1821	5401
1	1840	5402
1	1841	5403
1	1831	5404
1	1814	5405
1	1787	5406
1	1760	5407
1	1740	5408
1	1723	5409
1	1712	5410
1	1712	5411
1	1713	5412
1	1724	5413
1	1738	5414
1	1752	5415
1	1764	5416
1	1768	5417
1	1764	5418
1	1755	5419
1	1742	5420
1	1735	5421
1	1724	5422
1	1729	5423
1	1728	5424
1	1729	5425
1	1729	5426
1	1736	5427
1	1740	5428
1	1750	5429
1	1764	5430
1	1783	5431
1	1813	5432
1	1831	5433
1	1854	5434
1	1877	5435
1	1897	5436
1	1917	5437
1	1944	5438
1	1953	5439
1	1960	5440
1	1975	5441
1	1976	5442
1	1977	5443
1	1976	5444
1	1969	5445
1	1961	5446
1	1953	5447
1	1944	5448
1	1931	5449
1	1916	5450
1	1904	5451
1	1895	5452
1	1881	5453
1	1867	5454
1	1845	5455
1	1828	5456
1	1800	5457
1	1778	5458
1	1764	5459
1	1760	5460
1	1764	5461
1	1783	5462
1	1808	5463
1	1832	5464
1	1856	5465
1	1872	5466
1	1886	5467
1	1901	5468
1	1909	5469
1	1919	5470
1	1929	5471
1	1935	5472
1	1936	5473
1	1926	5474
1	1908	5475
1	1888	5476
1	1873	5477
1	1857	5478
1	1849	5479
1	1846	5480
1	1849	5481
1	1856	5482
1	1868	5483
1	1861	5484
1	1847	5485
1	1830	5486
1	1809	5487
1	1790	5488
1	1778	5489
1	1769	5490
1	1767	5491
1	1761	5492
1	1741	5493
1	1729	5494
1	1723	5495
1	1733	5496
1	1761	5497
1	1814	5498
1	1863	5499
1	1920	5500
1	1974	5501
1	2023	5502
1	2052	5503
1	2065	5504
1	2066	5505
1	2058	5506
1	2048	5507
1	2016	5508
1	1985	5509
1	1953	5510
1	1922	5511
1	1899	5512
1	1883	5513
1	1860	5514
1	1841	5515
1	1820	5516
1	1808	5517
1	1796	5518
1	1791	5519
1	1791	5520
1	1789	5521
1	1791	5522
1	1783	5523
1	1782	5524
1	1789	5525
1	1791	5526
1	1803	5527
1	1829	5528
1	1844	5529
1	1862	5530
1	1882	5531
1	1901	5532
1	1914	5533
1	1922	5534
1	1922	5535
1	1915	5536
1	1896	5537
1	1869	5538
1	1848	5539
1	1828	5540
1	1803	5541
1	1790	5542
1	1782	5543
1	1772	5544
1	1764	5545
1	1764	5546
1	1755	5547
1	1747	5548
1	1737	5549
1	1715	5550
1	1697	5551
1	1677	5552
1	1661	5553
1	1665	5554
1	1686	5555
1	1715	5556
1	1748	5557
1	1778	5558
1	1809	5559
1	1864	5600
1	1866	5601
1	1863	5602
1	1861	5603
1	1856	5604
1	1851	5605
1	1843	5606
1	1832	5607
1	1817	5608
1	1796	5609
1	1778	5610
1	1757	5611
1	1741	5612
1	1724	5613
1	1718	5614
1	1715	5615
1	1728	5616
1	1749	5617
1	1776	5618
1	1791	5619
1	1899	5600
1	1883	5601
1	1859	5602
1	1826	5603
1	1798	5604
1	1769	5605
1	1739	5606
1	1712	5607
1	1688	5608
1	1662	5609
1	1643	5610
1	1629	5611
1	1629	5612
1	1647	5613
1	1679	5614
1	1721	5615
1	1767	5616
1	1818	5617
1	1840	5618
1	1855	5619
1	1838	5560
1	1856	5561
1	1871	5562
1	1881	5563
1	1884	5564
1	1881	5565
1	1875	5566
1	1867	5567
1	1843	5568
1	1821	5569
1	1798	5570
1	1786	5571
1	1785	5572
1	1793	5573
1	1816	5574
1	1842	5575
1	1869	5576
1	1892	5577
1	1906	5578
1	1908	5579
1	1809	5620
1	1812	5621
1	1803	5622
1	1795	5623
1	1789	5624
1	1775	5625
1	1764	5626
1	1760	5627
1	1751	5628
1	1763	5629
1	1773	5630
1	1788	5631
1	1795	5632
1	1812	5633
1	1817	5634
1	1825	5635
1	1835	5636
1	1843	5637
1	1849	5638
1	1855	5639
1	1856	5640
1	1863	5641
1	1868	5642
1	1868	5643
1	1865	5644
1	1856	5645
1	1848	5646
1	1835	5647
1	1816	5648
1	1791	5649
1	1778	5650
1	1770	5651
1	1764	5652
1	1761	5653
1	1760	5654
1	1764	5655
1	1773	5656
1	1787	5657
1	1796	5658
1	1817	5659
1	1818	5680
1	1803	5681
1	1791	5682
1	1779	5683
1	1769	5684
1	1764	5685
1	1764	5686
1	1765	5687
1	1768	5688
1	1782	5689
1	1798	5690
1	1818	5691
1	1841	5692
1	1869	5693
1	1898	5694
1	1935	5695
1	1958	5696
1	1961	5697
1	1952	5698
1	1939	5699
1	1831	5660
1	1836	5661
1	1836	5662
1	1843	5663
1	1852	5664
1	1869	5665
1	1886	5666
1	1898	5667
1	1908	5668
1	1913	5669
1	1922	5670
1	1922	5671
1	1921	5672
1	1910	5673
1	1908	5674
1	1904	5675
1	1894	5676
1	1870	5677
1	1856	5678
1	1836	5679
1	1922	5700
1	1913	5701
1	1898	5702
1	1881	5703
1	1869	5704
1	1850	5705
1	1829	5706
1	1800	5707
1	1786	5708
1	1767	5709
1	1760	5710
1	1755	5711
1	1761	5712
1	1769	5713
1	1788	5714
1	1801	5715
1	1817	5716
1	1830	5717
1	1836	5718
1	1848	5719
1	1867	5720
1	1883	5721
1	1898	5722
1	1910	5723
1	1906	5724
1	1893	5725
1	1875	5726
1	1869	5727
1	1866	5728
1	1859	5729
1	1852	5730
1	1841	5731
1	1830	5732
1	1817	5733
1	1817	5734
1	1826	5735
1	1843	5736
1	1865	5737
1	1890	5738
1	1908	5739
1	1917	5740
1	1935	5741
1	1942	5742
1	1939	5743
1	1935	5744
1	1930	5745
1	1920	5746
1	1906	5747
1	1885	5748
1	1861	5749
1	1840	5750
1	1817	5751
1	1796	5752
1	1790	5753
1	1791	5754
1	1800	5755
1	1817	5756
1	1843	5757
1	1865	5758
1	1889	5759
1	1907	5760
1	1920	5761
1	1934	5762
1	1944	5763
1	1958	5764
1	1967	5765
1	1973	5766
1	1967	5767
1	1958	5768
1	1935	5769
1	1913	5770
1	1890	5771
1	1866	5772
1	1843	5773
1	1828	5774
1	1817	5775
1	1817	5776
1	1825	5777
1	1829	5778
1	1841	5779
1	1856	5780
1	1872	5781
1	1894	5782
1	1910	5783
1	1916	5784
1	1916	5785
1	1913	5786
1	1911	5787
1	1908	5788
1	1896	5789
1	1878	5790
1	1857	5791
1	1845	5792
1	1826	5793
1	1816	5794
1	1801	5795
1	1791	5796
1	1783	5797
1	1787	5798
1	1791	5799
1	1814	5800
1	1842	5801
1	1875	5802
1	1914	5803
1	1957	5804
1	1996	5805
1	2026	5806
1	2050	5807
1	2052	5808
1	2050	5809
1	2026	5810
1	1999	5811
1	1978	5812
1	1967	5813
1	1948	5814
1	1922	5815
1	1901	5816
1	1882	5817
1	1869	5818
1	1862	5819
1	1855	5820
1	1848	5821
1	1843	5822
1	1834	5823
1	1829	5824
1	1834	5825
1	1843	5826
1	1850	5827
1	1857	5828
1	1857	5829
1	1857	5830
1	1869	5831
1	1878	5832
1	1899	5833
1	1923	5834
1	1955	5835
1	1982	5836
1	2003	5837
1	2003	5838
1	2004	5839
1	1999	5840
1	1986	5841
1	1973	5842
1	1973	5843
1	1975	5844
1	1980	5845
1	1998	5846
1	2005	5847
1	2003	5848
1	2003	5849
1	2000	5850
1	1996	5851
1	1985	5852
1	1970	5853
1	1948	5854
1	1927	5855
1	1910	5856
1	1895	5857
1	1883	5858
1	1867	5859
1	1862	5860
1	1868	5861
1	1868	5862
1	1871	5863
1	1875	5864
1	1877	5865
1	1873	5866
1	1868	5867
1	1849	5868
1	1836	5869
1	1825	5870
1	1813	5871
1	1795	5872
1	1791	5873
1	1782	5874
1	1780	5875
1	1787	5876
1	1795	5877
1	1811	5878
1	1831	5879
1	1855	5880
1	1877	5881
1	1897	5882
1	1909	5883
1	1922	5884
1	1932	5885
1	1934	5886
1	1939	5887
1	1935	5888
1	1936	5889
1	1943	5890
1	1945	5891
1	1937	5892
1	1922	5893
1	1898	5894
1	1880	5895
1	1865	5896
1	1856	5897
1	1843	5898
1	1837	5899
1	1825	5900
1	1814	5901
1	1803	5902
1	1800	5903
1	1791	5904
1	1787	5905
1	1792	5906
1	1816	5907
1	1842	5908
1	1872	5909
1	1908	5910
1	1939	5911
1	1957	5912
1	1957	5913
1	1952	5914
1	1947	5915
1	1935	5916
1	1931	5917
1	1946	5918
1	1965	5919
1	1991	5920
1	2018	5921
1	2048	5922
1	2065	5923
1	2076	5924
1	2079	5925
1	2078	5926
1	2075	5927
1	2068	5928
1	2078	5929
1	2089	5930
1	2102	5931
1	2119	5932
1	2153	5933
1	2184	5934
1	2232	5935
1	2286	5936
1	2340	5937
1	2383	5938
1	2408	5939
1	2404	5940
1	2394	5941
1	2381	5942
1	2366	5943
1	2343	5944
1	2318	5945
1	2282	5946
1	2219	5947
1	2151	5948
1	2081	5949
1	2016	5950
1	1948	5951
1	1883	5952
1	1814	5953
1	1747	5954
1	1706	5955
1	1677	5956
1	1660	5957
1	1649	5958
1	1656	5959
1	1673	5960
1	1695	5961
1	1719	5962
1	1751	5963
1	1772	5964
1	1789	5965
1	1798	5966
1	1815	5967
1	1829	5968
1	1844	5969
1	1852	5970
1	1856	5971
1	1860	5972
1	1857	5973
1	1859	5974
1	1864	5975
1	1875	5976
1	1889	5977
1	1900	5978
1	1904	5979
1	1903	5980
1	1910	5981
1	1922	5982
1	1934	5983
1	1948	5984
1	1958	5985
1	1962	5986
1	1961	5987
1	1948	5988
1	1938	5989
1	1932	5990
1	1930	5991
1	1923	5992
1	1922	5993
1	1913	5994
1	1906	5995
1	1904	5996
1	1905	5997
1	1913	5998
1	1919	5999
1	1924	6000
1	1932	6001
1	1943	6002
1	1944	6003
1	1947	6004
1	1948	6005
1	1947	6006
1	1935	6007
1	1922	6008
1	1896	6009
1	1871	6010
1	1854	6011
1	1841	6012
1	1840	6013
1	1844	6014
1	1855	6015
1	1872	6016
1	1903	6017
1	1926	6018
1	1961	6019
1	1995	6020
1	2026	6021
1	2052	6022
1	2068	6023
1	2070	6024
1	2066	6025
1	2052	6026
1	2027	6027
1	2000	6028
1	1965	6029
1	1929	6030
1	1886	6031
1	1845	6032
1	1817	6033
1	1817	6034
1	1832	6035
1	1851	6036
1	1872	6037
1	1910	6038
1	1949	6039
1	1984	6040
1	2006	6041
1	2016	6042
1	2025	6043
1	2022	6044
1	2005	6045
1	1986	6046
1	1965	6047
1	1945	6048
1	1920	6049
1	1893	6050
1	1866	6051
1	1841	6052
1	1818	6053
1	1811	6054
1	1803	6055
1	1816	6056
1	1841	6057
1	1864	6058
1	1893	6059
1	1921	6060
1	1944	6061
1	1957	6062
1	1960	6063
1	1964	6064
1	1974	6065
1	1985	6066
1	1991	6067
1	2000	6068
1	1994	6069
1	1988	6070
1	1984	6071
1	1987	6072
1	1988	6073
1	1994	6074
1	2007	6075
1	2022	6076
1	2035	6077
1	2039	6078
1	2042	6079
1	2039	6080
1	2037	6081
1	2027	6082
1	2021	6083
1	2004	6084
1	1998	6085
1	1995	6086
1	1996	6087
1	1994	6088
1	1989	6089
1	1981	6090
1	1976	6091
1	1976	6092
1	1975	6093
1	1991	6094
1	2012	6095
1	2030	6096
1	2052	6097
1	2076	6098
1	2086	6099
1	2093	6100
1	2103	6101
1	2109	6102
1	2117	6103
1	2125	6104
1	2132	6105
1	2133	6106
1	2133	6107
1	2117	6108
1	2097	6109
1	2071	6110
1	2039	6111
1	2009	6112
1	1993	6113
1	1976	6114
1	1974	6115
1	1979	6116
1	2003	6117
1	2036	6118
1	2068	6119
1	2090	6120
1	2108	6121
1	2124	6122
1	2130	6123
1	2133	6124
1	2135	6125
1	2141	6126
1	2142	6127
1	2152	6128
1	2144	6129
1	2140	6130
1	2136	6131
1	2132	6132
1	2129	6133
1	2121	6134
1	2117	6135
1	2114	6136
1	2115	6137
1	2106	6138
1	2105	6139
1	2104	6140
1	2091	6141
1	2079	6142
1	2083	6143
1	2081	6144
1	2087	6145
1	2088	6146
1	2087	6147
1	2084	6148
1	2080	6149
1	2088	6150
1	2092	6151
1	2091	6152
1	2081	6153
1	2079	6154
1	2074	6155
1	2074	6156
1	2078	6157
1	2084	6158
1	2091	6159
1	2102	6160
1	2116	6161
1	2131	6162
1	2147	6163
1	2163	6164
1	2172	6165
1	2181	6166
1	2183	6167
1	2170	6168
1	2158	6169
1	2142	6170
1	2129	6171
1	2117	6172
1	2120	6173
1	2129	6174
1	2143	6175
1	2158	6176
1	2173	6177
1	2188	6178
1	2204	6179
1	2215	6180
1	2222	6181
1	2233	6182
1	2220	6183
1	2214	6184
1	2210	6185
1	2199	6186
1	2184	6187
1	2178	6188
1	2158	6189
1	2139	6190
1	2119	6191
1	2096	6192
1	2077	6193
1	2058	6194
1	2052	6195
1	2040	6196
1	2039	6197
1	2035	6198
1	2042	6199
1	2051	6200
1	2052	6201
1	2061	6202
1	2081	6203
1	2104	6204
1	2124	6205
1	2144	6206
1	2157	6207
1	2166	6208
1	2170	6209
1	2172	6210
1	2171	6211
1	2169	6212
1	2156	6213
1	2149	6214
1	2146	6215
1	2143	6216
1	2143	6217
1	2157	6218
1	2163	6219
1	2179	6220
1	2189	6221
1	2207	6222
1	2214	6223
1	2222	6224
1	2222	6225
1	2218	6226
1	2210	6227
1	2196	6228
1	2175	6229
1	2155	6230
1	2129	6231
1	2106	6232
1	2097	6233
1	2081	6234
1	2071	6235
1	2057	6236
1	2041	6237
1	2019	6238
1	1993	6239
1	1949	6240
1	1906	6241
1	1860	6242
1	1839	6243
1	1843	6244
1	1863	6245
1	1895	6246
1	1925	6247
1	1950	6248
1	1969	6249
1	1976	6250
1	1977	6251
1	1981	6252
1	1970	6253
1	1957	6254
1	1945	6255
1	1929	6256
1	1917	6257
1	1906	6258
1	1898	6259
1	1896	6260
1	1899	6261
1	1906	6262
1	1922	6263
1	1923	6264
1	1926	6265
1	1939	6266
1	1961	6267
1	1994	6268
1	2026	6269
1	2052	6270
1	2074	6271
1	2084	6272
1	2084	6273
1	2081	6274
1	2076	6275
1	2065	6276
1	2053	6277
1	2053	6278
1	2042	6279
1	2027	6280
1	2016	6281
1	2007	6282
1	1998	6283
1	1987	6284
1	1982	6285
1	1973	6286
1	1961	6287
1	1946	6288
1	1942	6289
1	1945	6290
1	1952	6291
1	1968	6292
1	1992	6293
1	2007	6294
1	2025	6295
1	2032	6296
1	2030	6297
1	2026	6298
1	2023	6299
1	2022	6300
1	2030	6301
1	2044	6302
1	2057	6303
1	2078	6304
1	2093	6305
1	2105	6306
1	2121	6307
1	2148	6308
1	2160	6309
1	2167	6310
1	2161	6311
1	2156	6312
1	2140	6313
1	2128	6314
1	2112	6315
1	2090	6316
1	2070	6317
1	2051	6318
1	2042	6319
1	2037	6320
1	2026	6321
1	2022	6322
1	2029	6323
1	2042	6324
1	2051	6325
1	2057	6326
1	2057	6327
1	2061	6328
1	2057	6329
1	2052	6330
1	2037	6331
1	2026	6332
1	2016	6333
1	2022	6334
1	2035	6335
1	2057	6336
1	2079	6337
1	2111	6338
1	2131	6339
1	2147	6340
1	2143	6341
1	2141	6342
1	2135	6343
1	2129	6344
1	2120	6345
1	2104	6346
1	2078	6347
1	2048	6348
1	2015	6349
1	1987	6350
1	1962	6351
1	1950	6352
1	1953	6353
1	1957	6354
1	1963	6355
1	1974	6356
1	1995	6357
1	2012	6358
1	2021	6359
1	2024	6360
1	2023	6361
1	2015	6362
1	2000	6363
1	1991	6364
1	1982	6365
1	1976	6366
1	1962	6367
1	1955	6368
1	1940	6369
1	1926	6370
1	1931	6371
1	1945	6372
1	1962	6373
1	1988	6374
1	2024	6375
1	2058	6376
1	2089	6377
1	2105	6378
1	2120	6379
1	2132	6380
1	2136	6381
1	2137	6382
1	2140	6383
1	2132	6384
1	2120	6385
1	2106	6386
1	2088	6387
1	2074	6388
1	2061	6389
1	2048	6390
1	2034	6391
1	2016	6392
1	1989	6393
1	1974	6394
1	1956	6395
1	1931	6396
1	1900	6397
1	1872	6398
1	1843	6399
1	1820	6400
1	1803	6401
1	1800	6402
1	1822	6403
1	1867	6404
1	1922	6405
1	1983	6406
1	2047	6407
1	2082	6408
1	2104	6409
1	2105	6410
1	2092	6411
1	2077	6412
1	2066	6413
1	2052	6414
1	2048	6415
1	2043	6416
1	2045	6417
1	2052	6418
1	2065	6419
1	2075	6420
1	2084	6421
1	2093	6422
1	2083	6423
1	2079	6424
1	2066	6425
1	2052	6426
1	2032	6427
1	2021	6428
1	2000	6429
1	1981	6430
1	1968	6431
1	1961	6432
1	1956	6433
1	1953	6434
1	1952	6435
1	1953	6436
1	1955	6437
1	1948	6438
1	1940	6439
1	1983	6480
1	1973	6481
1	1961	6482
1	1945	6483
1	1931	6484
1	1916	6485
1	1895	6486
1	1870	6487
1	1859	6488
1	1848	6489
1	1841	6490
1	1829	6491
1	1817	6492
1	1816	6493
1	1818	6494
1	1830	6495
1	1843	6496
1	1859	6497
1	1875	6498
1	1899	6499
1	2001	6460
1	2003	6461
1	2004	6462
1	2000	6463
1	1995	6464
1	1992	6465
1	1991	6466
1	1994	6467
1	1989	6468
1	1992	6469
1	1991	6470
1	1987	6471
1	1983	6472
1	1986	6473
1	1978	6474
1	1976	6475
1	1976	6476
1	1981	6477
1	1986	6478
1	1988	6479
1	1917	6500
1	1934	6501
1	1953	6502
1	1976	6503
1	1996	6504
1	2006	6505
1	2013	6506
1	2016	6507
1	2014	6508
1	2006	6509
1	1994	6510
1	1978	6511
1	1965	6512
1	1943	6513
1	1931	6514
1	1924	6515
1	1921	6516
1	1908	6517
1	1901	6518
1	1894	6519
1	1924	6440
1	1904	6441
1	1890	6442
1	1887	6443
1	1887	6444
1	1895	6445
1	1899	6446
1	1911	6447
1	1919	6448
1	1930	6449
1	1947	6450
1	1965	6451
1	1976	6452
1	1976	6453
1	1983	6454
1	1985	6455
1	1984	6456
1	1985	6457
1	1987	6458
1	1988	6459
1	2007	6540
1	2010	6541
1	2002	6542
1	1991	6543
1	1979	6544
1	1972	6545
1	1958	6546
1	1938	6547
1	1921	6548
1	1908	6549
1	1900	6550
1	1892	6551
1	1879	6552
1	1856	6553
1	1841	6554
1	1818	6555
1	1799	6556
1	1799	6557
1	1808	6558
1	1831	6559
1	1894	6540
1	1894	6541
1	1893	6542
1	1895	6543
1	1895	6544
1	1899	6545
1	1903	6546
1	1909	6547
1	1911	6548
1	1922	6549
1	1945	6550
1	1974	6551
1	1998	6552
1	2013	6553
1	2015	6554
1	2023	6555
1	2026	6556
1	2027	6557
1	2021	6558
1	2016	6559
1	1862	6560
1	1896	6561
1	1932	6562
1	1961	6563
1	1978	6564
1	1990	6565
1	1985	6566
1	1972	6567
1	1947	6568
1	1920	6569
1	1890	6570
1	1863	6571
1	1841	6572
1	1819	6573
1	1823	6574
1	1832	6575
1	1842	6576
1	1848	6577
1	1869	6578
1	1885	6579
1	1884	6600
1	1874	6601
1	1871	6602
1	1874	6603
1	1887	6604
1	1908	6605
1	1931	6606
1	1958	6607
1	1999	6608
1	2043	6609
1	2102	6610
1	2159	6611
1	2215	6612
1	2273	6613
1	2321	6614
1	2369	6615
1	2418	6616
1	2459	6617
1	2492	6618
1	2518	6619
1	1904	6580
1	1922	6581
1	1945	6582
1	1966	6583
1	1985	6584
1	1998	6585
1	1999	6586
1	1993	6587
1	1983	6588
1	1985	6589
1	1989	6590
1	1991	6591
1	1989	6592
1	1991	6593
1	1982	6594
1	1967	6595
1	1943	6596
1	1935	6597
1	1918	6598
1	1904	6599
1	2535	6620
1	2540	6621
1	2527	6622
1	2511	6623
1	2471	6624
1	2417	6625
1	2354	6626
1	2287	6627
1	2210	6628
1	2133	6629
1	2061	6630
1	1996	6631
1	1934	6632
1	1875	6633
1	1832	6634
1	1792	6635
1	1762	6636
1	1733	6637
1	1712	6638
1	1691	6639
1	1674	6640
1	1661	6641
1	1661	6642
1	1679	6643
1	1703	6644
1	1737	6645
1	1767	6646
1	1793	6647
1	1822	6648
1	1842	6649
1	1856	6650
1	1866	6651
1	1873	6652
1	1880	6653
1	1873	6654
1	1870	6655
1	1864	6656
1	1864	6657
1	1858	6658
1	1851	6659
1	1843	6660
1	1832	6661
1	1831	6662
1	1824	6663
1	1826	6664
1	1834	6665
1	1847	6666
1	1859	6667
1	1875	6668
1	1886	6669
1	1898	6670
1	1910	6671
1	1922	6672
1	1929	6673
1	1939	6674
1	1948	6675
1	1960	6676
1	1974	6677
1	1974	6678
1	1979	6679
1	2009	6700
1	2021	6701
1	2024	6702
1	2021	6703
1	2013	6704
1	2000	6705
1	1980	6706
1	1960	6707
1	1926	6708
1	1897	6709
1	1869	6710
1	1852	6711
1	1842	6712
1	1829	6713
1	1822	6714
1	1823	6715
1	1830	6716
1	1843	6717
1	1849	6718
1	1848	6719
1	1978	6680
1	1975	6681
1	1973	6682
1	1973	6683
1	1953	6684
1	1933	6685
1	1920	6686
1	1899	6687
1	1883	6688
1	1867	6689
1	1856	6690
1	1845	6691
1	1842	6692
1	1841	6693
1	1850	6694
1	1869	6695
1	1895	6696
1	1922	6697
1	1959	6698
1	1988	6699
1	1848	6720
1	1857	6721
1	1870	6722
1	1877	6723
1	1888	6724
1	1893	6725
1	1882	6726
1	1870	6727
1	1873	6728
1	1872	6729
1	1880	6730
1	1886	6731
1	1895	6732
1	1909	6733
1	1922	6734
1	1939	6735
1	1951	6736
1	1960	6737
1	1964	6738
1	1972	6739
1	1883	6760
1	1891	6761
1	1894	6762
1	1895	6763
1	1895	6764
1	1899	6765
1	1913	6766
1	1919	6767
1	1921	6768
1	1929	6769
1	1948	6770
1	1971	6771
1	1993	6772
1	2014	6773
1	2013	6774
1	2000	6775
1	1975	6776
1	1949	6777
1	1925	6778
1	1906	6779
1	1973	6740
1	1967	6741
1	1958	6742
1	1947	6743
1	1922	6744
1	1895	6745
1	1859	6746
1	1835	6747
1	1811	6748
1	1796	6749
1	1793	6750
1	1796	6751
1	1798	6752
1	1791	6753
1	1791	6754
1	1800	6755
1	1813	6756
1	1826	6757
1	1846	6758
1	1863	6759
1	1894	6780
1	1891	6781
1	1888	6782
1	1882	6783
1	1888	6784
1	1895	6785
1	1896	6786
1	1895	6787
1	1896	6788
1	1895	6789
1	1895	6790
1	1893	6791
1	1887	6792
1	1877	6793
1	1866	6794
1	1852	6795
1	1841	6796
1	1823	6797
1	1820	6798
1	1819	6799
1	1821	6800
1	1818	6801
1	1822	6802
1	1841	6803
1	1856	6804
1	1875	6805
1	1895	6806
1	1916	6807
1	1933	6808
1	1950	6809
1	1967	6810
1	1980	6811
1	1992	6812
1	1986	6813
1	1982	6814
1	1974	6815
1	1962	6816
1	1950	6817
1	1942	6818
1	1922	6819
1	1913	6820
1	1907	6821
1	1911	6822
1	1922	6823
1	1940	6824
1	1953	6825
1	1965	6826
1	1964	6827
1	1953	6828
1	1949	6829
1	1943	6830
1	1934	6831
1	1914	6832
1	1897	6833
1	1875	6834
1	1860	6835
1	1848	6836
1	1835	6837
1	1821	6838
1	1817	6839
1	1811	6840
1	1817	6841
1	1829	6842
1	1850	6843
1	1869	6844
1	1893	6845
1	1909	6846
1	1926	6847
1	1943	6848
1	1953	6849
1	1962	6850
1	1969	6851
1	1978	6852
1	1977	6853
1	1980	6854
1	1986	6855
1	1992	6856
1	1995	6857
1	1989	6858
1	1983	6859
1	1856	6880
1	1854	6881
1	1852	6882
1	1854	6883
1	1852	6884
1	1844	6885
1	1841	6886
1	1841	6887
1	1832	6888
1	1830	6889
1	1829	6890
1	1821	6891
1	1817	6892
1	1827	6893
1	1828	6894
1	1835	6895
1	1841	6896
1	1841	6897
1	1842	6898
1	1841	6899
1	1976	6860
1	1970	6861
1	1957	6862
1	1945	6863
1	1919	6864
1	1888	6865
1	1857	6866
1	1830	6867
1	1814	6868
1	1798	6869
1	1796	6870
1	1809	6871
1	1817	6872
1	1816	6873
1	1818	6874
1	1829	6875
1	1839	6876
1	1847	6877
1	1857	6878
1	1858	6879
1	1843	6900
1	1848	6901
1	1850	6902
1	1846	6903
1	1836	6904
1	1817	6905
1	1791	6906
1	1775	6907
1	1773	6908
1	1770	6909
1	1770	6910
1	1770	6911
1	1773	6912
1	1773	6913
1	1773	6914
1	1769	6915
1	1769	6916
1	1774	6917
1	1773	6918
1	1778	6919
1	1785	6920
1	1790	6921
1	1791	6922
1	1798	6923
1	1802	6924
1	1816	6925
1	1826	6926
1	1835	6927
1	1842	6928
1	1843	6929
1	1841	6930
1	1831	6931
1	1816	6932
1	1778	6933
1	1744	6934
1	1712	6935
1	1686	6936
1	1670	6937
1	1669	6938
1	1664	6939
1	1660	6960
1	1664	6961
1	1679	6962
1	1687	6963
1	1712	6964
1	1734	6965
1	1751	6966
1	1764	6967
1	1776	6968
1	1775	6969
1	1772	6970
1	1765	6971
1	1759	6972
1	1751	6973
1	1747	6974
1	1738	6975
1	1728	6976
1	1713	6977
1	1692	6978
1	1678	6979
1	1669	6940
1	1673	6941
1	1672	6942
1	1686	6943
1	1701	6944
1	1724	6945
1	1743	6946
1	1764	6947
1	1779	6948
1	1791	6949
1	1800	6950
1	1812	6951
1	1802	6952
1	1791	6953
1	1766	6954
1	1740	6955
1	1712	6956
1	1694	6957
1	1674	6958
1	1661	6959
1	1664	6980
1	1661	6981
1	1672	6982
1	1689	6983
1	1705	6984
1	1720	6985
1	1737	6986
1	1751	6987
1	1764	6988
1	1772	6989
1	1766	6990
1	1757	6991
1	1738	6992
1	1712	6993
1	1686	6994
1	1668	6995
1	1651	6996
1	1641	6997
1	1638	6998
1	1643	6999
1	1660	7000
1	1686	7001
1	1710	7002
1	1730	7003
1	1741	7004
1	1739	7005
1	1738	7006
1	1738	7007
1	1733	7008
1	1724	7009
1	1716	7010
1	1716	7011
1	1725	7012
1	1743	7013
1	1760	7014
1	1775	7015
1	1791	7016
1	1799	7017
1	1798	7018
1	1790	7019
1	1773	7020
1	1764	7021
1	1759	7022
1	1748	7023
1	1743	7024
1	1746	7025
1	1746	7026
1	1746	7027
1	1751	7028
1	1744	7029
1	1738	7030
1	1729	7031
1	1712	7032
1	1695	7033
1	1681	7034
1	1676	7035
1	1680	7036
1	1681	7037
1	1669	7038
1	1660	7039
1	1647	7080
1	1660	7081
1	1672	7082
1	1687	7083
1	1712	7084
1	1734	7085
1	1751	7086
1	1760	7087
1	1770	7088
1	1775	7089
1	1773	7090
1	1767	7091
1	1753	7092
1	1736	7093
1	1714	7094
1	1695	7095
1	1681	7096
1	1669	7097
1	1669	7098
1	1677	7099
1	1652	7040
1	1643	7041
1	1634	7042
1	1634	7043
1	1634	7044
1	1638	7045
1	1647	7046
1	1652	7047
1	1654	7048
1	1654	7049
1	1656	7050
1	1662	7051
1	1679	7052
1	1690	7053
1	1704	7054
1	1719	7055
1	1733	7056
1	1747	7057
1	1764	7058
1	1769	7059
1	1780	7060
1	1773	7061
1	1764	7062
1	1760	7063
1	1764	7064
1	1768	7065
1	1765	7066
1	1756	7067
1	1733	7068
1	1708	7069
1	1685	7070
1	1665	7071
1	1656	7072
1	1651	7073
1	1643	7074
1	1633	7075
1	1622	7076
1	1625	7077
1	1633	7078
1	1638	7079
1	1685	7100
1	1691	7101
1	1686	7102
1	1682	7103
1	1670	7104
1	1662	7105
1	1667	7106
1	1672	7107
1	1675	7108
1	1687	7109
1	1702	7110
1	1714	7111
1	1718	7112
1	1714	7113
1	1715	7114
1	1713	7115
1	1705	7116
1	1687	7117
1	1681	7118
1	1674	7119
1	1677	7120
1	1686	7121
1	1700	7122
1	1715	7123
1	1734	7124
1	1751	7125
1	1763	7126
1	1764	7127
1	1755	7128
1	1747	7129
1	1733	7130
1	1713	7131
1	1699	7132
1	1700	7133
1	1706	7134
1	1719	7135
1	1738	7136
1	1755	7137
1	1766	7138
1	1778	7139
1	1777	7140
1	1768	7141
1	1764	7142
1	1759	7143
1	1742	7144
1	1719	7145
1	1695	7146
1	1667	7147
1	1638	7148
1	1615	7149
1	1602	7150
1	1603	7151
1	1611	7152
1	1616	7153
1	1620	7154
1	1625	7155
1	1628	7156
1	1634	7157
1	1642	7158
1	1655	7159
1	1665	7160
1	1679	7161
1	1690	7162
1	1712	7163
1	1729	7164
1	1742	7165
1	1755	7166
1	1764	7167
1	1769	7168
1	1770	7169
1	1765	7170
1	1755	7171
1	1743	7172
1	1728	7173
1	1715	7174
1	1709	7175
1	1702	7176
1	1697	7177
1	1697	7178
1	1696	7179
1	1698	7180
1	1697	7181
1	1697	7182
1	1697	7183
1	1691	7184
1	1678	7185
1	1658	7186
1	1634	7187
1	1609	7188
1	1595	7189
1	1590	7190
1	1594	7191
1	1610	7192
1	1639	7193
1	1669	7194
1	1701	7195
1	1738	7196
1	1767	7197
1	1794	7198
1	1809	7199
1	1809	7200
1	1793	7201
1	1780	7202
1	1761	7203
1	1738	7204
1	1715	7205
1	1694	7206
1	1670	7207
1	1656	7208
1	1647	7209
1	1644	7210
1	1647	7211
1	1652	7212
1	1658	7213
1	1664	7214
1	1678	7215
1	1686	7216
1	1686	7217
1	1674	7218
1	1652	7219
1	1615	7220
1	1573	7221
1	1542	7222
1	1537	7223
1	1544	7224
1	1564	7225
1	1584	7226
1	1607	7227
1	1626	7228
1	1645	7229
1	1661	7230
1	1672	7231
1	1680	7232
1	1674	7233
1	1672	7234
1	1664	7235
1	1660	7236
1	1657	7237
1	1660	7238
1	1661	7239
1	1555	7260
1	1572	7261
1	1593	7262
1	1607	7263
1	1631	7264
1	1647	7265
1	1662	7266
1	1669	7267
1	1670	7268
1	1664	7269
1	1660	7270
1	1660	7271
1	1661	7272
1	1669	7273
1	1674	7274
1	1679	7275
1	1681	7276
1	1678	7277
1	1672	7278
1	1670	7279
1	1672	7260
1	1680	7261
1	1680	7262
1	1679	7263
1	1677	7264
1	1668	7265
1	1661	7266
1	1657	7267
1	1651	7268
1	1644	7269
1	1634	7270
1	1620	7271
1	1600	7272
1	1583	7273
1	1564	7274
1	1550	7275
1	1542	7276
1	1542	7277
1	1541	7278
1	1544	7279
1	1660	7280
1	1651	7281
1	1652	7282
1	1661	7283
1	1672	7284
1	1684	7285
1	1691	7286
1	1699	7287
1	1709	7288
1	1712	7289
1	1721	7290
1	1742	7291
1	1777	7292
1	1801	7293
1	1839	7294
1	1868	7295
1	1895	7296
1	1922	7297
1	1958	7298
1	1988	7299
1	2021	7300
1	2058	7301
1	2096	7302
1	2130	7303
1	2156	7304
1	2170	7305
1	2183	7306
1	2192	7307
1	2183	7308
1	2162	7309
1	2137	7310
1	2106	7311
1	2075	7312
1	2043	7313
1	1989	7314
1	1932	7315
1	1869	7316
1	1803	7317
1	1729	7318
1	1647	7319
1	1563	7320
1	1482	7321
1	1420	7322
1	1351	7323
1	1312	7324
1	1280	7325
1	1262	7326
1	1253	7327
1	1259	7328
1	1278	7329
1	1299	7330
1	1330	7331
1	1361	7332
1	1400	7333
1	1436	7334
1	1462	7335
1	1476	7336
1	1490	7337
1	1497	7338
1	1508	7339
1	1527	7340
1	1544	7341
1	1566	7342
1	1590	7343
1	1608	7344
1	1627	7345
1	1642	7346
1	1643	7347
1	1641	7348
1	1634	7349
1	1623	7350
1	1607	7351
1	1593	7352
1	1580	7353
1	1568	7354
1	1557	7355
1	1545	7356
1	1546	7357
1	1551	7358
1	1561	7359
1	1583	7360
1	1602	7361
1	1624	7362
1	1647	7363
1	1660	7364
1	1670	7365
1	1674	7366
1	1667	7367
1	1647	7368
1	1629	7369
1	1611	7370
1	1603	7371
1	1598	7372
1	1607	7373
1	1601	7374
1	1593	7375
1	1580	7376
1	1566	7377
1	1554	7378
1	1544	7379
1	1538	7380
1	1533	7381
1	1541	7382
1	1548	7383
1	1564	7384
1	1577	7385
1	1581	7386
1	1581	7387
1	1573	7388
1	1553	7389
1	1526	7390
1	1502	7391
1	1478	7392
1	1459	7393
1	1449	7394
1	1449	7395
1	1463	7396
1	1479	7397
1	1511	7398
1	1543	7399
1	1580	7400
1	1605	7401
1	1618	7402
1	1616	7403
1	1599	7404
1	1569	7405
1	1526	7406
1	1476	7407
1	1436	7408
1	1407	7409
1	1399	7410
1	1410	7411
1	1439	7412
1	1472	7413
1	1503	7414
1	1529	7415
1	1549	7416
1	1562	7417
1	1585	7418
1	1605	7419
1	1622	7420
1	1637	7421
1	1647	7422
1	1647	7423
1	1644	7424
1	1632	7425
1	1617	7426
1	1602	7427
1	1577	7428
1	1554	7429
1	1532	7430
1	1521	7431
1	1512	7432
1	1511	7433
1	1507	7434
1	1513	7435
1	1525	7436
1	1535	7437
1	1546	7438
1	1556	7439
1	1568	7440
1	1577	7441
1	1577	7442
1	1568	7443
1	1556	7444
1	1537	7445
1	1508	7446
1	1477	7447
1	1454	7448
1	1445	7449
1	1439	7450
1	1458	7451
1	1485	7452
1	1508	7453
1	1534	7454
1	1555	7455
1	1571	7456
1	1587	7457
1	1599	7458
1	1611	7459
1	1636	7500
1	1634	7501
1	1631	7502
1	1618	7503
1	1607	7504
1	1594	7505
1	1582	7506
1	1581	7507
1	1593	7508
1	1607	7509
1	1625	7510
1	1636	7511
1	1646	7512
1	1654	7513
1	1656	7514
1	1653	7515
1	1647	7516
1	1631	7517
1	1607	7518
1	1597	7519
1	1447	7480
1	1423	7481
1	1415	7482
1	1422	7483
1	1437	7484
1	1456	7485
1	1481	7486
1	1506	7487
1	1524	7488
1	1543	7489
1	1562	7490
1	1581	7491
1	1596	7492
1	1608	7493
1	1619	7494
1	1629	7495
1	1639	7496
1	1642	7497
1	1644	7498
1	1639	7499
1	1622	7460
1	1627	7461
1	1630	7462
1	1632	7463
1	1624	7464
1	1616	7465
1	1608	7466
1	1602	7467
1	1593	7468
1	1584	7469
1	1582	7470
1	1587	7471
1	1595	7472
1	1594	7473
1	1598	7474
1	1597	7475
1	1585	7476
1	1557	7477
1	1526	7478
1	1485	7479
1	1590	7520
1	1593	7521
1	1605	7522
1	1629	7523
1	1649	7524
1	1670	7525
1	1690	7526
1	1707	7527
1	1715	7528
1	1723	7529
1	1728	7530
1	1734	7531
1	1739	7532
1	1737	7533
1	1726	7534
1	1713	7535
1	1706	7536
1	1698	7537
1	1697	7538
1	1686	7539
1	1549	7560
1	1566	7561
1	1581	7562
1	1589	7563
1	1593	7564
1	1593	7565
1	1590	7566
1	1584	7567
1	1582	7568
1	1580	7569
1	1577	7570
1	1571	7571
1	1560	7572
1	1548	7573
1	1538	7574
1	1536	7575
1	1548	7576
1	1557	7577
1	1568	7578
1	1573	7579
1	1672	7540
1	1656	7541
1	1636	7542
1	1623	7543
1	1608	7544
1	1595	7545
1	1589	7546
1	1581	7547
1	1573	7548
1	1563	7549
1	1554	7550
1	1542	7551
1	1526	7552
1	1508	7553
1	1490	7554
1	1476	7555
1	1485	7556
1	1503	7557
1	1516	7558
1	1531	7559
1	1580	7580
1	1587	7581
1	1598	7582
1	1610	7583
1	1607	7584
1	1599	7585
1	1583	7586
1	1562	7587
1	1538	7588
1	1513	7589
1	1491	7590
1	1472	7591
1	1458	7592
1	1447	7593
1	1450	7594
1	1470	7595
1	1491	7596
1	1509	7597
1	1529	7598
1	1533	7599
1	1530	7600
1	1531	7601
1	1536	7602
1	1537	7603
1	1536	7604
1	1539	7605
1	1548	7606
1	1555	7607
1	1559	7608
1	1561	7609
1	1560	7610
1	1554	7611
1	1545	7612
1	1541	7613
1	1531	7614
1	1528	7615
1	1521	7616
1	1517	7617
1	1514	7618
1	1516	7619
1	1517	7620
1	1525	7621
1	1530	7622
1	1530	7623
1	1529	7624
1	1525	7625
1	1526	7626
1	1528	7627
1	1538	7628
1	1542	7629
1	1549	7630
1	1555	7631
1	1565	7632
1	1571	7633
1	1572	7634
1	1564	7635
1	1555	7636
1	1541	7637
1	1524	7638
1	1520	7639
1	1528	7640
1	1537	7641
1	1543	7642
1	1555	7643
1	1555	7644
1	1563	7645
1	1570	7646
1	1567	7647
1	1555	7648
1	1546	7649
1	1544	7650
1	1553	7651
1	1559	7652
1	1557	7653
1	1557	7654
1	1562	7655
1	1569	7656
1	1571	7657
1	1565	7658
1	1562	7659
1	1562	7660
1	1559	7661
1	1556	7662
1	1553	7663
1	1549	7664
1	1543	7665
1	1537	7666
1	1536	7667
1	1538	7668
1	1555	7669
1	1581	7670
1	1603	7671
1	1605	7672
1	1596	7673
1	1581	7674
1	1564	7675
1	1548	7676
1	1535	7677
1	1529	7678
1	1529	7679
1	1533	7680
1	1546	7681
1	1567	7682
1	1590	7683
1	1619	7684
1	1647	7685
1	1661	7686
1	1671	7687
1	1682	7688
1	1679	7689
1	1672	7690
1	1662	7691
1	1647	7692
1	1634	7693
1	1616	7694
1	1602	7695
1	1585	7696
1	1567	7697
1	1549	7698
1	1535	7699
1	1531	7700
1	1538	7701
1	1544	7702
1	1555	7703
1	1557	7704
1	1564	7705
1	1571	7706
1	1581	7707
1	1595	7708
1	1611	7709
1	1622	7710
1	1630	7711
1	1643	7712
1	1660	7713
1	1689	7714
1	1718	7715
1	1746	7716
1	1765	7717
1	1789	7718
1	1792	7719
1	1792	7720
1	1786	7721
1	1778	7722
1	1764	7723
1	1754	7724
1	1747	7725
1	1736	7726
1	1718	7727
1	1697	7728
1	1674	7729
1	1650	7730
1	1623	7731
1	1594	7732
1	1570	7733
1	1543	7734
1	1521	7735
1	1507	7736
1	1503	7737
1	1512	7738
1	1529	7739
1	1537	7740
1	1548	7741
1	1555	7742
1	1567	7743
1	1581	7744
1	1598	7745
1	1623	7746
1	1646	7747
1	1662	7748
1	1674	7749
1	1675	7750
1	1697	7751
1	1716	7752
1	1729	7753
1	1738	7754
1	1739	7755
1	1740	7756
1	1740	7757
1	1736	7758
1	1734	7759
1	1728	7760
1	1721	7761
1	1715	7762
1	1721	7763
1	1721	7764
1	1716	7765
1	1710	7766
1	1697	7767
1	1684	7768
1	1674	7769
1	1664	7770
1	1656	7771
1	1645	7772
1	1631	7773
1	1622	7774
1	1621	7775
1	1629	7776
1	1643	7777
1	1664	7778
1	1683	7779
1	1695	7780
1	1708	7781
1	1721	7782
1	1729	7783
1	1737	7784
1	1739	7785
1	1739	7786
1	1738	7787
1	1727	7788
1	1729	7789
1	1739	7790
1	1751	7791
1	1764	7792
1	1785	7793
1	1789	7794
1	1786	7795
1	1785	7796
1	1780	7797
1	1777	7798
1	1764	7799
1	1751	7800
1	1737	7801
1	1723	7802
1	1715	7803
1	1708	7804
1	1698	7805
1	1688	7806
1	1688	7807
1	1703	7808
1	1712	7809
1	1720	7810
1	1728	7811
1	1738	7812
1	1749	7813
1	1752	7814
1	1756	7815
1	1756	7816
1	1753	7817
1	1739	7818
1	1733	7819
1	1724	7820
1	1725	7821
1	1729	7822
1	1740	7823
1	1744	7824
1	1749	7825
1	1759	7826
1	1775	7827
1	1791	7828
1	1817	7829
1	1834	7830
1	1844	7831
1	1855	7832
1	1852	7833
1	1847	7834
1	1841	7835
1	1839	7836
1	1840	7837
1	1844	7838
1	1837	7839
1	1823	7840
1	1803	7841
1	1792	7842
1	1770	7843
1	1761	7844
1	1746	7845
1	1734	7846
1	1720	7847
1	1710	7848
1	1697	7849
1	1689	7850
1	1687	7851
1	1694	7852
1	1710	7853
1	1724	7854
1	1749	7855
1	1773	7856
1	1796	7857
1	1817	7858
1	1829	7859
1	1843	7860
1	1856	7861
1	1881	7862
1	1898	7863
1	1916	7864
1	1924	7865
1	1923	7866
1	1918	7867
1	1913	7868
1	1904	7869
1	1892	7870
1	1881	7871
1	1869	7872
1	1860	7873
1	1856	7874
1	1857	7875
1	1867	7876
1	1875	7877
1	1875	7878
1	1872	7879
1	1869	7880
1	1860	7881
1	1849	7882
1	1834	7883
1	1811	7884
1	1782	7885
1	1763	7886
1	1752	7887
1	1746	7888
1	1743	7889
1	1739	7890
1	1738	7891
1	1747	7892
1	1758	7893
1	1778	7894
1	1811	7895
1	1841	7896
1	1861	7897
1	1885	7898
1	1895	7899
1	1908	7900
1	1922	7901
1	1929	7902
1	1937	7903
1	1943	7904
1	1948	7905
1	1950	7906
1	1948	7907
1	1925	7908
1	1899	7909
1	1872	7910
1	1856	7911
1	1834	7912
1	1818	7913
1	1795	7914
1	1782	7915
1	1775	7916
1	1782	7917
1	1796	7918
1	1818	7919
1	1841	7920
1	1859	7921
1	1881	7922
1	1895	7923
1	1908	7924
1	1913	7925
1	1908	7926
1	1895	7927
1	1891	7928
1	1878	7929
1	1872	7930
1	1873	7931
1	1870	7932
1	1864	7933
1	1849	7934
1	1836	7935
1	1824	7936
1	1813	7937
1	1791	7938
1	1780	7939
1	1847	7960
1	1841	7961
1	1835	7962
1	1832	7963
1	1832	7964
1	1836	7965
1	1839	7966
1	1838	7967
1	1834	7968
1	1838	7969
1	1843	7970
1	1854	7971
1	1866	7972
1	1886	7973
1	1895	7974
1	1896	7975
1	1895	7976
1	1886	7977
1	1873	7978
1	1867	7979
1	1774	7940
1	1772	7941
1	1778	7942
1	1791	7943
1	1811	7944
1	1829	7945
1	1852	7946
1	1870	7947
1	1895	7948
1	1908	7949
1	1920	7950
1	1926	7951
1	1922	7952
1	1907	7953
1	1894	7954
1	1880	7955
1	1870	7956
1	1867	7957
1	1859	7958
1	1849	7959
1	2217	8000
1	2258	8000
1	2289	8002
1	2327	8003
1	2341	8004
1	2338	8005
1	2320	8006
1	2296	8007
1	2264	8008
1	2214	8009
1	2156	8010
1	2081	8011
1	2003	8012
1	1919	8013
1	1840	8013
1	1759	8015
1	1684	8016
1	1616	8016
1	1573	8018
1	1541	8019
1	1865	7980
1	1870	7981
1	1886	7982
1	1899	7983
1	1924	7984
1	1957	7985
1	1991	7986
1	2030	7987
1	2076	7988
1	2105	7989
1	2119	7990
1	2131	7991
1	2143	7992
1	2156	7993
1	2159	7994
1	2161	7995
1	2159	7996
1	2159	7997
1	2161	7998
1	2185	7999
1	1524	8020
1	1519	8021
1	1535	8022
1	1564	8023
1	1598	8024
1	1634	8025
1	1662	8026
1	1688	8027
1	1701	8028
1	1722	8029
1	1738	8029
1	1752	8031
1	1760	8032
1	1769	8032
1	1773	8034
1	1780	8035
1	1791	8036
1	1794	8037
1	1800	8038
1	1800	8039
1	1795	8040
1	1786	8041
1	1774	8042
1	1764	8043
1	1764	8044
1	1767	8045
1	1776	8045
1	1782	8047
1	1791	8048
1	1793	8048
1	1811	8050
1	1826	8051
1	1844	8052
1	1852	8053
1	1853	8054
1	1850	8055
1	1843	8056
1	1836	8057
1	1817	8058
1	1799	8059
1	1788	8060
1	1780	8061
1	1778	8061
1	1788	8063
1	1787	8064
1	1783	8064
1	1787	8066
1	1793	8067
1	1815	8068
1	1829	8069
1	1839	8070
1	1843	8071
1	1843	8072
1	1836	8073
1	1832	8074
1	1829	8074
1	1829	8076
1	1823	8077
1	1816	8077
1	1796	8079
1	1789	8080
1	1790	8080
1	1802	8082
1	1827	8083
1	1844	8084
1	1859	8085
1	1869	8086
1	1877	8087
1	1874	8088
1	1883	8089
1	1887	8090
1	1890	8090
1	1893	8092
1	1891	8093
1	1877	8093
1	1864	8095
1	1854	8096
1	1845	8096
1	1850	8098
1	1861	8099
1	1881	8100
1	1899	8101
1	1920	8102
1	1927	8103
1	1942	8104
1	1948	8105
1	1950	8106
1	1949	8106
1	1946	8108
1	1923	8109
1	1900	8109
1	1875	8111
1	1857	8112
1	1848	8113
1	1843	8114
1	1835	8115
1	1829	8116
1	1827	8117
1	1821	8118
1	1820	8119
1	1824	8120
1	1834	8121
1	1851	8122
1	1878	8122
1	1903	8124
1	1935	8125
1	1967	8125
1	2000	8127
1	2021	8128
1	2028	8129
1	2027	8130
1	2024	8131
1	2016	8132
1	1996	8133
1	1975	8134
1	1958	8135
1	1947	8136
1	1936	8137
1	1938	8138
1	1934	8138
1	1935	8140
1	1938	8141
1	1935	8141
1	1935	8143
1	1926	8144
1	1917	8145
1	1899	8146
1	1875	8147
1	1851	8148
1	1831	8149
1	1816	8150
1	1800	8151
1	1800	8152
1	1818	8153
1	1846	8154
1	1877	8154
1	1908	8156
1	1948	8157
1	1986	8157
1	2019	8159
1	2052	8160
1	2084	8161
1	2112	8162
1	2120	8163
1	2124	8164
1	2120	8165
1	2109	8166
1	2097	8167
1	2093	8168
1	2079	8169
1	2061	8170
1	2040	8170
1	2017	8172
1	1986	8173
1	1958	8173
1	1937	8175
1	1922	8176
1	1917	8177
1	1903	8178
1	1899	8179
1	1899	8180
1	1908	8181
1	1921	8182
1	1936	8183
1	1951	8184
1	1969	8185
1	1989	8186
1	2009	8186
1	2026	8188
1	2038	8189
1	2040	8189
1	2034	8191
1	2026	8192
1	2012	8193
1	2000	8194
1	1993	8195
1	1983	8196
1	1978	8197
1	1985	8198
1	1983	8199
1	1978	8200
1	1974	8201
1	1973	8202
1	1974	8203
1	1985	8204
1	1995	8205
1	2003	8206
1	2013	8207
1	2006	8208
1	1994	8209
1	1976	8210
1	1961	8211
1	1940	8212
1	1930	8213
1	1926	8214
1	1933	8215
1	1949	8216
1	1976	8217
1	2007	8218
1	2042	8219
1	2078	8220
1	2109	8221
1	2133	8222
1	2133	8223
1	2131	8224
1	2116	8225
1	2094	8226
1	2066	8227
1	2035	8228
1	2001	8229
1	1968	8230
1	1938	8231
1	1913	8232
1	1896	8233
1	1890	8234
1	1890	8235
1	1899	8236
1	1914	8237
1	1927	8238
1	1952	8239
1	1985	8240
1	2011	8241
1	2026	8242
1	2041	8243
1	2048	8244
1	2052	8245
1	2052	8246
1	2053	8247
1	2060	8248
1	2064	8249
1	2065	8250
1	2061	8251
1	2057	8252
1	2047	8253
1	2042	8254
1	2036	8255
1	2026	8256
1	2017	8257
1	2003	8258
1	1993	8259
1	1991	8260
1	1985	8261
1	1974	8262
1	1962	8263
1	1953	8264
1	1948	8265
1	1941	8266
1	1936	8267
1	1926	8268
1	1922	8269
1	1924	8270
1	1931	8271
1	1937	8272
1	1948	8273
1	1956	8274
1	1962	8275
1	1964	8276
1	1968	8277
1	1970	8278
1	1961	8279
1	1949	8280
1	1936	8281
1	1929	8282
1	1922	8283
1	1922	8284
1	1909	8285
1	1891	8286
1	1863	8287
1	1841	8288
1	1818	8289
1	1796	8290
1	1793	8291
1	1791	8292
1	1786	8293
1	1779	8294
1	1772	8295
1	1772	8296
1	1773	8297
1	1783	8298
1	1795	8299
1	1817	8300
1	1836	8301
1	1857	8302
1	1886	8303
1	1905	8304
1	1914	8305
1	1921	8306
1	1921	8307
1	1916	8308
1	1899	8309
1	1874	8310
1	1856	8311
1	1845	8312
1	1837	8313
1	1837	8314
1	1843	8315
1	1859	8316
1	1879	8317
1	1895	8318
1	1895	8319
1	1889	8320
1	1887	8321
1	1887	8322
1	1882	8323
1	1869	8324
1	1855	8325
1	1839	8326
1	1826	8327
1	1812	8328
1	1802	8329
1	1803	8330
1	1808	8331
1	1803	8332
1	1816	8333
1	1817	8334
1	1817	8335
1	1818	8336
1	1818	8337
1	1826	8338
1	1834	8339
1	1836	8360
1	1827	8361
1	1822	8362
1	1826	8363
1	1827	8364
1	1822	8365
1	1819	8366
1	1818	8367
1	1821	8368
1	1832	8369
1	1848	8370
1	1863	8371
1	1875	8372
1	1886	8373
1	1906	8374
1	1930	8375
1	1953	8376
1	1972	8377
1	1989	8378
1	1989	8379
1	1835	8340
1	1837	8341
1	1837	8342
1	1836	8343
1	1834	8344
1	1835	8345
1	1832	8346
1	1830	8347
1	1828	8348
1	1826	8349
1	1830	8350
1	1836	8351
1	1849	8352
1	1856	8353
1	1857	8354
1	1857	8355
1	1854	8356
1	1847	8357
1	1841	8358
1	1838	8359
1	1989	8380
1	1994	8381
1	1998	8382
1	2000	8383
1	1996	8384
1	1976	8385
1	1948	8386
1	1913	8387
1	1864	8388
1	1822	8389
1	1787	8390
1	1764	8391
1	1748	8392
1	1744	8393
1	1751	8394
1	1764	8395
1	1782	8396
1	1793	8397
1	1808	8398
1	1813	8399
1	1803	8400
1	1793	8401
1	1788	8402
1	1785	8403
1	1788	8404
1	1795	8405
1	1816	8406
1	1837	8407
1	1867	8408
1	1893	8409
1	1912	8410
1	1925	8411
1	1939	8412
1	1947	8413
1	1950	8414
1	1962	8415
1	1975	8416
1	1991	8417
1	1998	8418
1	2000	8419
1	2001	8420
1	1996	8421
1	1987	8422
1	1986	8423
1	1978	8424
1	1968	8425
1	1953	8426
1	1931	8427
1	1903	8428
1	1868	8429
1	1828	8430
1	1787	8431
1	1743	8432
1	1699	8433
1	1664	8434
1	1648	8435
1	1645	8436
1	1652	8437
1	1686	8438
1	1727	8439
1	1768	8440
1	1816	8441
1	1854	8442
1	1885	8443
1	1908	8444
1	1926	8445
1	1934	8446
1	1935	8447
1	1926	8448
1	1916	8449
1	1897	8450
1	1880	8451
1	1859	8452
1	1839	8453
1	1818	8454
1	1812	8455
1	1814	8456
1	1827	8457
1	1833	8458
1	1838	8459
1	1834	8460
1	1821	8461
1	1800	8462
1	1775	8463
1	1764	8464
1	1759	8465
1	1761	8466
1	1765	8467
1	1782	8468
1	1801	8469
1	1832	8470
1	1867	8471
1	1898	8472
1	1922	8473
1	1932	8474
1	1932	8475
1	1932	8476
1	1926	8477
1	1921	8478
1	1920	8479
1	1922	8480
1	1924	8481
1	1927	8482
1	1939	8483
1	1940	8484
1	1935	8485
1	1922	8486
1	1903	8487
1	1878	8488
1	1854	8489
1	1827	8490
1	1808	8491
1	1785	8492
1	1759	8493
1	1740	8494
1	1733	8495
1	1726	8496
1	1725	8497
1	1729	8498
1	1734	8499
1	1742	8500
1	1756	8501
1	1775	8502
1	1803	8503
1	1843	8504
1	1879	8505
1	1917	8506
1	1951	8507
1	1974	8508
1	1991	8509
1	1999	8510
1	1996	8511
1	1988	8512
1	1985	8513
1	1974	8514
1	1966	8515
1	1957	8516
1	1948	8517
1	1944	8518
1	1938	8519
1	1934	8520
1	1926	8521
1	1922	8522
1	1906	8523
1	1893	8524
1	1878	8525
1	1857	8526
1	1834	8527
1	1814	8528
1	1782	8529
1	1764	8530
1	1757	8531
1	1755	8532
1	1764	8533
1	1783	8534
1	1811	8535
1	1836	8536
1	1857	8537
1	1877	8538
1	1901	8539
1	1922	8540
1	1947	8541
1	1966	8542
1	1988	8543
1	2000	8544
1	1996	8545
1	1976	8546
1	1949	8547
1	1910	8548
1	1869	8549
1	1831	8550
1	1793	8551
1	1773	8552
1	1753	8553
1	1751	8554
1	1753	8555
1	1763	8556
1	1769	8557
1	1769	8558
1	1767	8559
1	1773	8560
1	1773	8561
1	1773	8562
1	1769	8563
1	1770	8564
1	1782	8565
1	1792	8566
1	1817	8567
1	1838	8568
1	1860	8569
1	1875	8570
1	1881	8571
1	1881	8572
1	1883	8573
1	1869	8574
1	1859	8575
1	1844	8576
1	1835	8577
1	1829	8578
1	1832	8579
1	1841	8580
1	1851	8581
1	1859	8582
1	1854	8583
1	1843	8584
1	1819	8585
1	1790	8586
1	1756	8587
1	1737	8588
1	1728	8589
1	1733	8590
1	1738	8591
1	1741	8592
1	1747	8593
1	1759	8594
1	1778	8595
1	1800	8596
1	1817	8597
1	1829	8598
1	1837	8599
1	1845	8600
1	1857	8601
1	1868	8602
1	1873	8603
1	1869	8604
1	1864	8605
1	1856	8606
1	1854	8607
1	1855	8608
1	1856	8609
1	1860	8610
1	1867	8611
1	1868	8612
1	1866	8613
1	1866	8614
1	1856	8615
1	1845	8616
1	1832	8617
1	1829	8618
1	1818	8619
1	1814	8620
1	1809	8621
1	1811	8622
1	1822	8623
1	1837	8624
1	1850	8625
1	1858	8626
1	1859	8627
1	1853	8628
1	1857	8629
1	1869	8630
1	1877	8631
1	1883	8632
1	1890	8633
1	1890	8634
1	1893	8635
1	1898	8636
1	1899	8637
1	1901	8638
1	1901	8639
1	1887	8640
1	1872	8641
1	1855	8642
1	1841	8643
1	1819	8644
1	1791	8645
1	1767	8646
1	1751	8647
1	1738	8648
1	1727	8649
1	1726	8650
1	1737	8651
1	1753	8652
1	1765	8653
1	1782	8654
1	1800	8655
1	1822	8656
1	1840	8657
1	1849	8658
1	1869	8659
1	2157	8680
1	2108	8681
1	2058	8682
1	2000	8683
1	1934	8684
1	1864	8685
1	1791	8686
1	1737	8687
1	1684	8688
1	1647	8689
1	1619	8690
1	1597	8691
1	1581	8692
1	1566	8693
1	1544	8694
1	1525	8695
1	1504	8696
1	1492	8697
1	1499	8698
1	1513	8699
1	1534	8700
1	1559	8701
1	1594	8702
1	1634	8703
1	1681	8704
1	1727	8705
1	1770	8706
1	1817	8707
1	1854	8708
1	1877	8709
1	1890	8710
1	1887	8711
1	1875	8712
1	1859	8713
1	1851	8714
1	1845	8715
1	1843	8716
1	1841	8717
1	1831	8718
1	1827	8719
1	1895	8660
1	1922	8661
1	1961	8662
1	2012	8663
1	2058	8664
1	2103	8665
1	2134	8666
1	2162	8667
1	2192	8668
1	2230	8669
1	2269	8670
1	2305	8671
1	2333	8672
1	2341	8673
1	2341	8674
1	2325	8675
1	2299	8676
1	2267	8677
1	2242	8678
1	2201	8679
1	1826	8720
1	1825	8721
1	1824	8722
1	1830	8723
1	1827	8724
1	1827	8725
1	1819	8726
1	1809	8727
1	1790	8728
1	1775	8729
1	1764	8730
1	1755	8731
1	1749	8732
1	1746	8733
1	1762	8734
1	1783	8735
1	1812	8736
1	1841	8737
1	1868	8738
1	1872	8739
1	1873	8740
1	1873	8741
1	1880	8742
1	1881	8743
1	1880	8744
1	1881	8745
1	1879	8746
1	1872	8747
1	1868	8748
1	1856	8749
1	1843	8750
1	1835	8751
1	1831	8752
1	1831	8753
1	1823	8754
1	1827	8755
1	1830	8756
1	1843	8757
1	1850	8758
1	1854	8759
1	1854	8760
1	1851	8761
1	1849	8762
1	1841	8763
1	1825	8764
1	1800	8765
1	1777	8766
1	1752	8767
1	1737	8768
1	1723	8769
1	1733	8770
1	1759	8771
1	1791	8772
1	1830	8773
1	1853	8774
1	1869	8775
1	1882	8776
1	1899	8777
1	1908	8778
1	1919	8779
1	1863	8800
1	1890	8801
1	1895	8802
1	1890	8803
1	1872	8804
1	1856	8805
1	1841	8806
1	1834	8807
1	1824	8808
1	1822	8809
1	1829	8810
1	1841	8811
1	1862	8812
1	1874	8813
1	1881	8814
1	1880	8815
1	1870	8816
1	1856	8817
1	1831	8818
1	1798	8819
1	1922	8780
1	1926	8781
1	1935	8782
1	1948	8783
1	1954	8784
1	1953	8785
1	1947	8786
1	1928	8787
1	1905	8788
1	1881	8789
1	1862	8790
1	1844	8791
1	1823	8792
1	1796	8793
1	1781	8794
1	1767	8795
1	1758	8796
1	1761	8797
1	1791	8798
1	1832	8799
1	1877	8840
1	1913	8841
1	1944	8842
1	1958	8843
1	1963	8844
1	1957	8845
1	1940	8846
1	1931	8847
1	1908	8848
1	1877	8849
1	1845	8850
1	1817	8851
1	1785	8852
1	1749	8853
1	1725	8854
1	1711	8855
1	1708	8856
1	1719	8857
1	1746	8858
1	1752	8859
1	1778	8860
1	1800	8861
1	1828	8862
1	1851	8863
1	1869	8864
1	1881	8865
1	1879	8866
1	1878	8867
1	1870	8868
1	1869	8869
1	1864	8870
1	1853	8871
1	1832	8872
1	1816	8873
1	1791	8874
1	1776	8875
1	1762	8876
1	1751	8877
1	1744	8878
1	1738	8879
1	1772	8820
1	1747	8821
1	1726	8822
1	1701	8823
1	1690	8824
1	1693	8825
1	1703	8826
1	1713	8827
1	1728	8828
1	1734	8829
1	1738	8830
1	1741	8831
1	1741	8832
1	1746	8833
1	1746	8834
1	1752	8835
1	1762	8836
1	1778	8837
1	1802	8838
1	1840	8839
1	1835	8900
1	1832	8901
1	1836	8902
1	1834	8903
1	1831	8904
1	1843	8905
1	1854	8906
1	1859	8907
1	1869	8908
1	1881	8909
1	1893	8910
1	1900	8911
1	1899	8912
1	1886	8913
1	1868	8914
1	1845	8915
1	1819	8916
1	1795	8917
1	1786	8918
1	1767	8919
1	1741	8880
1	1742	8881
1	1742	8882
1	1744	8883
1	1751	8884
1	1759	8885
1	1765	8886
1	1778	8887
1	1795	8888
1	1801	8889
1	1802	8890
1	1809	8891
1	1817	8892
1	1827	8893
1	1836	8894
1	1844	8895
1	1849	8896
1	1849	8897
1	1843	8898
1	1841	8899
1	1762	8920
1	1764	8921
1	1764	8922
1	1769	8923
1	1776	8924
1	1786	8925
1	1791	8926
1	1801	8927
1	1808	8928
1	1817	8929
1	1820	8930
1	1826	8931
1	1834	8932
1	1845	8933
1	1851	8934
1	1854	8935
1	1858	8936
1	1863	8937
1	1861	8938
1	1854	8939
1	1839	8940
1	1831	8941
1	1830	8942
1	1829	8943
1	1818	8944
1	1800	8945
1	1770	8946
1	1744	8947
1	1721	8948
1	1706	8949
1	1701	8950
1	1697	8951
1	1698	8952
1	1701	8953
1	1703	8954
1	1703	8955
1	1698	8956
1	1690	8957
1	1678	8958
1	1665	8959
1	1661	8960
1	1661	8961
1	1671	8962
1	1690	8963
1	1706	8964
1	1720	8965
1	1739	8966
1	1757	8967
1	1762	8968
1	1759	8969
1	1744	8970
1	1729	8971
1	1713	8972
1	1692	8973
1	1681	8974
1	1674	8975
1	1686	8976
1	1704	8977
1	1734	8978
1	1751	8979
1	1767	8980
1	1775	8981
1	1770	8982
1	1766	8983
1	1760	8984
1	1749	8985
1	1733	8986
1	1714	8987
1	1695	8988
1	1682	8989
1	1673	8990
1	1664	8991
1	1656	8992
1	1650	8993
1	1643	8994
1	1638	8995
1	1640	8996
1	1644	8997
1	1659	8998
1	1674	8999
1	1688	9000
1	1704	9001
1	1724	9002
1	1744	9003
1	1764	9004
1	1791	9005
1	1816	9006
1	1830	9007
1	1843	9008
1	1837	9009
1	1824	9010
1	1803	9011
1	1782	9012
1	1765	9013
1	1755	9014
1	1741	9015
1	1733	9016
1	1725	9017
1	1718	9018
1	1716	9019
1	1718	9020
1	1716	9021
1	1713	9022
1	1714	9023
1	1710	9024
1	1713	9025
1	1721	9026
1	1733	9027
1	1742	9028
1	1760	9029
1	1774	9030
1	1782	9031
1	1788	9032
1	1783	9033
1	1790	9034
1	1793	9035
1	1803	9036
1	1817	9037
1	1824	9038
1	1817	9039
1	1796	9040
1	1791	9041
1	1791	9042
1	1793	9043
1	1799	9044
1	1817	9045
1	1832	9046
1	1844	9047
1	1854	9048
1	1862	9049
1	1866	9050
1	1859	9051
1	1845	9052
1	1836	9053
1	1801	9054
1	1780	9055
1	1751	9056
1	1730	9057
1	1703	9058
1	1685	9059
1	1670	9060
1	1661	9061
1	1660	9062
1	1660	9063
1	1670	9064
1	1679	9065
1	1686	9066
1	1702	9067
1	1725	9068
1	1742	9069
1	1755	9070
1	1764	9071
1	1766	9072
1	1772	9073
1	1779	9074
1	1783	9075
1	1786	9076
1	1787	9077
1	1782	9078
1	1781	9079
1	1775	9080
1	1767	9081
1	1768	9082
1	1773	9083
1	1769	9084
1	1766	9085
1	1764	9086
1	1761	9087
1	1749	9088
1	1737	9089
1	1721	9090
1	1707	9091
1	1692	9092
1	1682	9093
1	1677	9094
1	1682	9095
1	1692	9096
1	1701	9097
1	1719	9098
1	1735	9099
1	1747	9100
1	1755	9101
1	1773	9102
1	1791	9103
1	1816	9104
1	1834	9105
1	1858	9106
1	1885	9107
1	1904	9108
1	1922	9109
1	1933	9110
1	1933	9111
1	1918	9112
1	1895	9113
1	1869	9114
1	1840	9115
1	1808	9116
1	1778	9117
1	1754	9118
1	1746	9119
1	1750	9120
1	1760	9121
1	1768	9122
1	1778	9123
1	1791	9124
1	1812	9125
1	1818	9126
1	1818	9127
1	1818	9128
1	1802	9129
1	1785	9130
1	1767	9131
1	1758	9132
1	1753	9133
1	1757	9134
1	1773	9135
1	1796	9136
1	1823	9137
1	1841	9138
1	1859	9139
1	1877	9140
1	1890	9141
1	1890	9142
1	1877	9143
1	1859	9144
1	1839	9145
1	1809	9146
1	1764	9147
1	1729	9148
1	1693	9149
1	1665	9150
1	1646	9151
1	1626	9152
1	1602	9153
1	1586	9154
1	1584	9155
1	1593	9156
1	1609	9157
1	1636	9158
1	1678	9159
1	1713	9160
1	1752	9161
1	1791	9162
1	1827	9163
1	1850	9164
1	1862	9165
1	1868	9166
1	1869	9167
1	1855	9168
1	1843	9169
1	1820	9170
1	1799	9171
1	1775	9172
1	1759	9173
1	1733	9174
1	1711	9175
1	1691	9176
1	1675	9177
1	1664	9178
1	1659	9179
1	1649	9180
1	1642	9181
1	1635	9182
1	1623	9183
1	1613	9184
1	1605	9185
1	1599	9186
1	1598	9187
1	1607	9188
1	1616	9189
1	1633	9190
1	1646	9191
1	1655	9192
1	1664	9193
1	1677	9194
1	1692	9195
1	1706	9196
1	1712	9197
1	1720	9198
1	1728	9199
1	1738	9200
1	1746	9201
1	1760	9202
1	1779	9203
1	1799	9204
1	1830	9205
1	1857	9206
1	1879	9207
1	1895	9208
1	1898	9209
1	1895	9210
1	1889	9211
1	1871	9212
1	1844	9213
1	1819	9214
1	1793	9215
1	1780	9216
1	1767	9217
1	1764	9218
1	1757	9219
1	1755	9220
1	1753	9221
1	1749	9222
1	1746	9223
1	1749	9224
1	1756	9225
1	1764	9226
1	1766	9227
1	1764	9228
1	1769	9229
1	1778	9230
1	1791	9231
1	1812	9232
1	1836	9233
1	1854	9234
1	1870	9235
1	1887	9236
1	1899	9237
1	1910	9238
1	1914	9239
1	1913	9240
1	1912	9241
1	1910	9242
1	1911	9243
1	1908	9244
1	1895	9245
1	1871	9246
1	1849	9247
1	1831	9248
1	1809	9249
1	1799	9250
1	1792	9251
1	1803	9252
1	1808	9253
1	1812	9254
1	1815	9255
1	1814	9256
1	1812	9257
1	1793	9258
1	1780	9259
1	1765	9260
1	1755	9261
1	1751	9262
1	1762	9263
1	1764	9264
1	1767	9265
1	1770	9266
1	1773	9267
1	1776	9268
1	1776	9269
1	1768	9270
1	1765	9271
1	1766	9272
1	1761	9273
1	1756	9274
1	1754	9275
1	1752	9276
1	1752	9277
1	1760	9278
1	1764	9279
1	1765	9280
1	1769	9281
1	1774	9282
1	1778	9283
1	1790	9284
1	1795	9285
1	1800	9286
1	1800	9287
1	1793	9288
1	1793	9289
1	1795	9290
1	1793	9291
1	1789	9292
1	1787	9293
1	1778	9294
1	1773	9295
1	1769	9296
1	1778	9297
1	1793	9298
1	1823	9299
1	1857	9300
1	1893	9301
1	1922	9302
1	1949	9303
1	1992	9304
1	2039	9305
1	2083	9306
1	2122	9307
1	2158	9308
1	2183	9309
1	2208	9310
1	2240	9311
1	2265	9312
1	2289	9313
1	2314	9314
1	2325	9315
1	2336	9316
1	2336	9317
1	2317	9318
1	2294	9319
1	2262	9320
1	2210	9321
1	2161	9322
1	2118	9323
1	2065	9324
1	2007	9325
1	1948	9326
1	1881	9327
1	1803	9328
1	1734	9329
1	1669	9330
1	1609	9331
1	1561	9332
1	1515	9333
1	1480	9334
1	1456	9335
1	1450	9336
1	1451	9337
1	1464	9338
1	1476	9339
1	1806	9360
1	1791	9361
1	1783	9362
1	1764	9363
1	1751	9364
1	1738	9365
1	1730	9366
1	1727	9367
1	1727	9368
1	1720	9369
1	1718	9370
1	1730	9371
1	1742	9372
1	1759	9373
1	1766	9374
1	1773	9375
1	1766	9376
1	1749	9377
1	1709	9378
1	1660	9379
1	1611	9380
1	1571	9381
1	1544	9382
1	1535	9383
1	1525	9384
1	1524	9385
1	1539	9386
1	1577	9387
1	1620	9388
1	1661	9389
1	1699	9390
1	1735	9391
1	1757	9392
1	1773	9393
1	1791	9394
1	1808	9395
1	1817	9396
1	1824	9397
1	1841	9398
1	1844	9399
1	1489	9340
1	1515	9341
1	1531	9342
1	1540	9343
1	1535	9344
1	1529	9345
1	1528	9346
1	1529	9347
1	1540	9348
1	1566	9349
1	1607	9350
1	1657	9351
1	1701	9352
1	1741	9353
1	1773	9354
1	1796	9355
1	1811	9356
1	1820	9357
1	1818	9358
1	1817	9359
1	1846	9400
1	1849	9401
1	1845	9402
1	1832	9403
1	1802	9404
1	1776	9405
1	1754	9406
1	1734	9407
1	1706	9408
1	1686	9409
1	1674	9410
1	1665	9411
1	1662	9412
1	1671	9413
1	1671	9414
1	1670	9415
1	1665	9416
1	1660	9417
1	1656	9418
1	1652	9419
1	1657	9420
1	1669	9421
1	1688	9422
1	1704	9423
1	1722	9424
1	1742	9425
1	1755	9426
1	1762	9427
1	1765	9428
1	1764	9429
1	1756	9430
1	1739	9431
1	1710	9432
1	1674	9433
1	1647	9434
1	1635	9435
1	1634	9436
1	1636	9437
1	1638	9438
1	1643	9439
1	1665	9500
1	1688	9501
1	1716	9502
1	1751	9503
1	1778	9504
1	1799	9505
1	1817	9506
1	1827	9507
1	1824	9508
1	1818	9509
1	1814	9510
1	1801	9511
1	1786	9512
1	1762	9513
1	1746	9514
1	1738	9515
1	1737	9516
1	1736	9517
1	1742	9518
1	1751	9519
1	1544	9460
1	1584	9461
1	1647	9462
1	1715	9463
1	1782	9464
1	1835	9465
1	1869	9466
1	1886	9467
1	1883	9468
1	1873	9469
1	1857	9470
1	1833	9471
1	1803	9472
1	1783	9473
1	1764	9474
1	1751	9475
1	1742	9476
1	1736	9477
1	1729	9478
1	1726	9479
1	1647	9440
1	1649	9441
1	1652	9442
1	1656	9443
1	1663	9444
1	1683	9445
1	1697	9446
1	1708	9447
1	1713	9448
1	1713	9449
1	1699	9450
1	1671	9451
1	1634	9452
1	1589	9453
1	1547	9454
1	1515	9455
1	1499	9456
1	1494	9457
1	1503	9458
1	1521	9459
1	1734	9480
1	1731	9481
1	1724	9482
1	1709	9483
1	1695	9484
1	1680	9485
1	1662	9486
1	1659	9487
1	1654	9488
1	1655	9489
1	1660	9490
1	1662	9491
1	1669	9492
1	1674	9493
1	1678	9494
1	1675	9495
1	1669	9496
1	1652	9497
1	1647	9498
1	1652	9499
1	1756	9520
1	1764	9521
1	1764	9522
1	1765	9523
1	1767	9524
1	1773	9525
1	1775	9526
1	1772	9527
1	1760	9528
1	1747	9529
1	1738	9530
1	1720	9531
1	1701	9532
1	1693	9533
1	1685	9534
1	1680	9535
1	1686	9536
1	1695	9537
1	1706	9538
1	1711	9539
1	1722	9540
1	1741	9541
1	1769	9542
1	1791	9543
1	1815	9544
1	1828	9545
1	1840	9546
1	1842	9547
1	1836	9548
1	1823	9549
1	1809	9550
1	1789	9551
1	1775	9552
1	1755	9553
1	1744	9554
1	1740	9555
1	1741	9556
1	1747	9557
1	1751	9558
1	1759	9559
1	1762	9560
1	1764	9561
1	1768	9562
1	1782	9563
1	1791	9564
1	1801	9565
1	1817	9566
1	1823	9567
1	1826	9568
1	1827	9569
1	1825	9570
1	1826	9571
1	1818	9572
1	1791	9573
1	1762	9574
1	1731	9575
1	1698	9576
1	1662	9577
1	1636	9578
1	1612	9579
1	1645	9600
1	1652	9601
1	1660	9602
1	1668	9603
1	1688	9604
1	1713	9605
1	1735	9606
1	1746	9607
1	1754	9608
1	1751	9609
1	1738	9610
1	1723	9611
1	1701	9612
1	1679	9613
1	1652	9614
1	1632	9615
1	1607	9616
1	1592	9617
1	1572	9618
1	1556	9619
1	1595	9580
1	1580	9581
1	1559	9582
1	1548	9583
1	1547	9584
1	1551	9585
1	1548	9586
1	1546	9587
1	1536	9588
1	1537	9589
1	1531	9590
1	1526	9591
1	1518	9592
1	1510	9593
1	1513	9594
1	1529	9595
1	1555	9596
1	1581	9597
1	1611	9598
1	1632	9599
1	1549	9620
1	1544	9621
1	1553	9622
1	1581	9623
1	1605	9624
1	1618	9625
1	1626	9626
1	1629	9627
1	1625	9628
1	1618	9629
1	1607	9630
1	1595	9631
1	1583	9632
1	1559	9633
1	1539	9634
1	1526	9635
1	1516	9636
1	1515	9637
1	1520	9638
1	1517	9639
1	1527	9640
1	1530	9641
1	1535	9642
1	1538	9643
1	1543	9644
1	1549	9645
1	1547	9646
1	1541	9647
1	1532	9648
1	1526	9649
1	1520	9650
1	1527	9651
1	1544	9652
1	1568	9653
1	1585	9654
1	1605	9655
1	1613	9656
1	1628	9657
1	1629	9658
1	1625	9659
1	1622	9660
1	1618	9661
1	1612	9662
1	1605	9663
1	1603	9664
1	1604	9665
1	1603	9666
1	1605	9667
1	1612	9668
1	1623	9669
1	1633	9670
1	1634	9671
1	1635	9672
1	1639	9673
1	1643	9674
1	1645	9675
1	1646	9676
1	1647	9677
1	1638	9678
1	1634	9679
1	1632	9680
1	1623	9681
1	1620	9682
1	1622	9683
1	1625	9684
1	1629	9685
1	1636	9686
1	1647	9687
1	1664	9688
1	1688	9689
1	1712	9690
1	1737	9691
1	1751	9692
1	1749	9693
1	1747	9694
1	1742	9695
1	1731	9696
1	1719	9697
1	1712	9698
1	1694	9699
1	1668	9700
1	1644	9701
1	1620	9702
1	1604	9703
1	1595	9704
1	1594	9705
1	1598	9706
1	1598	9707
1	1597	9708
1	1605	9709
1	1616	9710
1	1629	9711
1	1648	9712
1	1661	9713
1	1670	9714
1	1677	9715
1	1686	9716
1	1685	9717
1	1679	9718
1	1669	9719
1	1658	9720
1	1647	9721
1	1634	9722
1	1616	9723
1	1611	9724
1	1616	9725
1	1619	9726
1	1620	9727
1	1619	9728
1	1616	9729
1	1618	9730
1	1625	9731
1	1633	9732
1	1634	9733
1	1633	9734
1	1633	9735
1	1634	9736
1	1634	9737
1	1625	9738
1	1612	9739
1	1607	9740
1	1602	9741
1	1600	9742
1	1607	9743
1	1607	9744
1	1607	9745
1	1629	9746
1	1639	9747
1	1656	9748
1	1674	9749
1	1692	9750
1	1709	9751
1	1712	9752
1	1710	9753
1	1698	9754
1	1688	9755
1	1684	9756
1	1679	9757
1	1681	9758
1	1688	9759
1	1702	9760
1	1710	9761
1	1712	9762
1	1718	9763
1	1728	9764
1	1738	9765
1	1751	9766
1	1770	9767
1	1779	9768
1	1780	9769
1	1775	9770
1	1764	9771
1	1755	9772
1	1743	9773
1	1724	9774
1	1700	9775
1	1678	9776
1	1652	9777
1	1628	9778
1	1602	9779
1	1582	9780
1	1577	9781
1	1581	9782
1	1589	9783
1	1600	9784
1	1607	9785
1	1610	9786
1	1608	9787
1	1608	9788
1	1607	9789
1	1605	9790
1	1602	9791
1	1603	9792
1	1607	9793
1	1606	9794
1	1607	9795
1	1613	9796
1	1634	9797
1	1662	9798
1	1701	9799
1	1746	9800
1	1786	9801
1	1830	9802
1	1854	9803
1	1864	9804
1	1856	9805
1	1836	9806
1	1814	9807
1	1780	9808
1	1749	9809
1	1711	9810
1	1674	9811
1	1647	9812
1	1610	9813
1	1585	9814
1	1573	9815
1	1561	9816
1	1562	9817
1	1559	9818
1	1562	9819
1	1568	9820
1	1581	9821
1	1607	9822
1	1636	9823
1	1675	9824
1	1714	9825
1	1759	9826
1	1791	9827
1	1803	9828
1	1817	9829
1	1816	9830
1	1809	9831
1	1818	9832
1	1825	9833
1	1830	9834
1	1830	9835
1	1824	9836
1	1817	9837
1	1803	9838
1	1792	9839
1	1787	9840
1	1790	9841
1	1791	9842
1	1795	9843
1	1800	9844
1	1808	9845
1	1803	9846
1	1803	9847
1	1793	9848
1	1777	9849
1	1752	9850
1	1714	9851
1	1674	9852
1	1629	9853
1	1586	9854
1	1555	9855
1	1532	9856
1	1525	9857
1	1525	9858
1	1536	9859
1	1560	9860
1	1592	9861
1	1626	9862
1	1662	9863
1	1690	9864
1	1719	9865
1	1751	9866
1	1778	9867
1	1799	9868
1	1817	9869
1	1822	9870
1	1819	9871
1	1809	9872
1	1782	9873
1	1764	9874
1	1747	9875
1	1727	9876
1	1711	9877
1	1703	9878
1	1698	9879
1	1616	9900
1	1645	9901
1	1674	9902
1	1694	9903
1	1712	9904
1	1728	9905
1	1733	9906
1	1737	9907
1	1726	9908
1	1711	9909
1	1698	9910
1	1689	9911
1	1681	9912
1	1671	9913
1	1662	9914
1	1658	9915
1	1651	9916
1	1647	9917
1	1634	9918
1	1617	9919
1	1691	9880
1	1692	9881
1	1692	9882
1	1692	9883
1	1686	9884
1	1677	9885
1	1669	9886
1	1670	9887
1	1665	9888
1	1661	9889
1	1651	9890
1	1634	9891
1	1616	9892
1	1595	9893
1	1576	9894
1	1561	9895
1	1557	9896
1	1556	9897
1	1569	9898
1	1590	9899
1	2015	9940
1	2052	9941
1	2079	9942
1	2099	9943
1	2119	9944
1	2135	9945
1	2146	9946
1	2143	9947
1	2129	9948
1	2105	9949
1	2077	9950
1	2040	9951
1	2000	9952
1	1952	9953
1	1898	9954
1	1842	9955
1	1775	9956
1	1718	9957
1	1663	9958
1	1612	9959
1	1593	9920
1	1571	9921
1	1556	9922
1	1543	9923
1	1534	9924
1	1530	9925
1	1535	9926
1	1549	9927
1	1577	9928
1	1610	9929
1	1656	9930
1	1707	9931
1	1759	9932
1	1796	9933
1	1841	9934
1	1873	9935
1	1904	9936
1	1940	9937
1	1967	9938
1	1993	9939
1	1563	9960
1	1516	9961
1	1474	9962
1	1445	9963
1	1430	9964
1	1424	9965
1	1421	9966
1	1424	9967
1	1441	9968
1	1461	9969
1	1481	9970
1	1498	9971
1	1508	9972
1	1515	9973
1	1524	9974
1	1535	9975
1	1554	9976
1	1577	9977
1	1594	9978
1	1620	9979
1	1644	9980
1	1664	9981
1	1683	9982
1	1697	9983
1	1697	9984
1	1690	9985
1	1686	9986
1	1679	9987
1	1665	9988
1	1656	9989
1	1634	9990
1	1611	9991
1	1589	9992
1	1566	9993
1	1555	9994
1	1559	9995
1	1573	9996
1	1599	9997
1	1625	9998
1	1655	9999
1	1686	10000
1	1715	10001
1	1750	10002
1	1778	10003
1	1801	10004
1	1815	10005
1	1812	10006
1	1800	10007
1	1775	10008
1	1751	10009
1	1726	10010
1	1702	10011
1	1683	10012
1	1665	10013
1	1646	10014
1	1632	10015
1	1621	10016
1	1610	10017
1	1601	10018
1	1587	10019
1	1574	10020
1	1564	10021
1	1562	10022
1	1556	10023
1	1554	10024
1	1555	10025
1	1560	10026
1	1589	10027
1	1613	10028
1	1639	10029
1	1661	10030
1	1679	10031
1	1688	10032
1	1698	10033
1	1703	10034
1	1704	10035
1	1700	10036
1	1695	10037
1	1681	10038
1	1672	10039
1	1667	10040
1	1661	10041
1	1652	10042
1	1646	10043
1	1644	10044
1	1657	10045
1	1679	10046
1	1691	10047
1	1711	10048
1	1727	10049
1	1746	10050
1	1756	10051
1	1755	10052
1	1752	10053
1	1746	10054
1	1734	10055
1	1711	10056
1	1685	10057
1	1658	10058
1	1639	10059
1	1612	10060
1	1590	10061
1	1568	10062
1	1555	10063
1	1553	10064
1	1560	10065
1	1577	10066
1	1594	10067
1	1608	10068
1	1633	10069
1	1660	10070
1	1687	10071
1	1710	10072
1	1731	10073
1	1739	10074
1	1749	10075
1	1754	10076
1	1761	10077
1	1767	10078
1	1777	10079
1	1786	10080
1	1790	10081
1	1791	10082
1	1791	10083
1	1791	10084
1	1795	10085
1	1790	10086
1	1773	10087
1	1754	10088
1	1729	10089
1	1707	10090
1	1686	10091
1	1661	10092
1	1652	10093
1	1647	10094
1	1643	10095
1	1641	10096
1	1646	10097
1	1646	10098
1	1647	10099
1	1647	10100
1	1647	10101
1	1660	10102
1	1667	10103
1	1682	10104
1	1697	10105
1	1712	10106
1	1727	10107
1	1738	10108
1	1746	10109
1	1750	10110
1	1751	10111
1	1754	10112
1	1751	10113
1	1753	10114
1	1759	10115
1	1761	10116
1	1764	10117
1	1769	10118
1	1767	10119
1	1764	10120
1	1766	10121
1	1767	10122
1	1768	10123
1	1765	10124
1	1764	10125
1	1761	10126
1	1762	10127
1	1751	10128
1	1737	10129
1	1721	10130
1	1703	10131
1	1700	10132
1	1695	10133
1	1703	10134
1	1726	10135
1	1751	10136
1	1779	10137
1	1808	10138
1	1825	10139
1	1843	10140
1	1859	10141
1	1869	10142
1	1873	10143
1	1870	10144
1	1858	10145
1	1841	10146
1	1817	10147
1	1792	10148
1	1779	10149
1	1769	10150
1	1762	10151
1	1764	10152
1	1755	10153
1	1747	10154
1	1739	10155
1	1738	10156
1	1738	10157
1	1734	10158
1	1737	10159
1	1745	10160
1	1759	10161
1	1781	10162
1	1817	10163
1	1838	10164
1	1850	10165
1	1857	10166
1	1858	10167
1	1865	10168
1	1865	10169
1	1861	10170
1	1854	10171
1	1847	10172
1	1839	10173
1	1834	10174
1	1834	10175
1	1830	10176
1	1826	10177
1	1827	10178
1	1818	10179
