#Date:= 2024-10-08T15:46:53.648983
#Sampling Rate(Hz):= 1000
#Labels:= LOD	ECG	TS
1	1847	40
1	1868	41
1	1883	42
1	1896	43
1	1913	44
1	1929	45
1	1958	46
1	1983	47
1	2000	48
1	2014	49
1	2024	50
1	2037	51
1	2051	52
1	2049	53
1	2038	54
1	2024	55
1	2005	56
1	1994	57
1	1985	58
1	1980	59
1	1970	80
1	1961	81
1	1959	82
1	1959	83
1	1961	84
1	1969	85
1	1974	86
1	1982	87
1	1987	88
1	1985	89
1	1982	90
1	1979	91
1	1975	92
1	1971	93
1	1959	94
1	1944	95
1	1930	96
1	1914	97
1	1914	98
1	1922	99
1	1815	20
1	1791	21
1	1770	22
1	1751	23
1	1738	24
1	1734	25
1	1720	26
1	1712	27
1	1715	28
1	1727	29
1	1743	30
1	1764	31
1	1775	32
1	1796	33
1	1812	34
1	1817	35
1	1816	36
1	1809	37
1	1795	38
1	1823	39
1	1976	60
1	1971	61
1	1974	62
1	1976	63
1	1992	64
1	2012	65
1	2030	66
1	2054	67
1	2076	68
1	2088	69
1	2093	70
1	2093	71
1	2087	72
1	2071	73
1	2052	74
1	2030	75
1	2018	76
1	2011	77
1	1995	78
1	1978	79
1	1931	100
1	1939	101
1	1945	102
1	1944	103
1	1932	104
1	1919	105
1	1908	106
1	1886	107
1	1868	108
1	1851	109
1	1840	110
1	1838	111
1	1844	112
1	1853	113
1	1858	114
1	1868	115
1	1878	116
1	1895	117
1	1913	118
1	1927	119
1	1948	120
1	1974	121
1	1995	122
1	2013	123
1	2024	124
1	2026	125
1	2028	126
1	2029	127
1	2031	128
1	2032	129
1	2030	130
1	2028	131
1	2024	132
1	2012	133
1	2003	134
1	1991	135
1	1976	136
1	1962	137
1	1948	138
1	1937	139
1	1932	140
1	1931	141
1	1926	142
1	1931	143
1	1937	144
1	1945	145
1	1951	146
1	1958	147
1	1962	148
1	1961	149
1	1950	150
1	1944	151
1	1930	152
1	1922	153
1	1919	154
1	1917	155
1	1917	156
1	1914	157
1	1919	158
1	1922	159
1	1855	180
1	1856	181
1	1863	182
1	1865	183
1	1868	184
1	1874	185
1	1878	186
1	1881	187
1	1881	188
1	1874	189
1	1866	190
1	1851	191
1	1841	192
1	1828	193
1	1817	194
1	1800	195
1	1781	196
1	1752	197
1	1731	198
1	1713	199
1	1935	160
1	1948	161
1	1963	162
1	1975	163
1	1988	164
1	1994	165
1	2000	166
1	1998	167
1	1985	168
1	1972	169
1	1955	170
1	1945	171
1	1935	172
1	1927	173
1	1911	174
1	1895	175
1	1881	176
1	1870	177
1	1865	178
1	1859	179
1	1694	200
1	1673	201
1	1646	202
1	1625	203
1	1625	204
1	1630	205
1	1643	206
1	1660	207
1	1682	208
1	1698	209
1	1717	210
1	1737	211
1	1739	212
1	1735	213
1	1730	214
1	1724	215
1	1716	216
1	1706	217
1	1694	218
1	1683	219
1	1670	220
1	1661	221
1	1657	222
1	1660	223
1	1667	224
1	1676	225
1	1683	226
1	1686	227
1	1697	228
1	1705	229
1	1714	230
1	1724	231
1	1731	232
1	1737	233
1	1744	234
1	1749	235
1	1752	236
1	1753	237
1	1751	238
1	1747	239
1	1736	240
1	1734	241
1	1725	242
1	1715	243
1	1706	244
1	1713	245
1	1716	246
1	1738	247
1	1747	248
1	1764	249
1	1770	250
1	1773	251
1	1775	252
1	1776	253
1	1775	254
1	1772	255
1	1769	256
1	1765	257
1	1762	258
1	1746	259
1	1737	260
1	1738	261
1	1746	262
1	1755	263
1	1773	264
1	1791	265
1	1819	266
1	1843	267
1	1869	268
1	1887	269
1	1900	270
1	1908	271
1	1903	272
1	1887	273
1	1870	274
1	1859	275
1	1844	276
1	1821	277
1	1790	278
1	1764	279
1	1738	280
1	1715	281
1	1703	282
1	1701	283
1	1713	284
1	1739	285
1	1767	286
1	1800	287
1	1832	288
1	1860	289
1	1897	290
1	1940	291
1	1974	292
1	1993	293
1	2001	294
1	1981	295
1	1948	296
1	1908	297
1	1868	298
1	1836	299
1	1809	300
1	1788	301
1	1782	302
1	1786	303
1	1791	304
1	1812	305
1	1826	306
1	1843	307
1	1861	308
1	1886	309
1	1910	310
1	1933	311
1	1949	312
1	1958	313
1	1961	314
1	1957	315
1	1953	316
1	1953	317
1	1948	318
1	1935	319
1	1922	320
1	1908	321
1	1897	322
1	1890	323
1	1888	324
1	1884	325
1	1888	326
1	1895	327
1	1911	328
1	1926	329
1	1957	330
1	1971	331
1	1976	332
1	1974	333
1	1962	334
1	1943	335
1	1913	336
1	1877	337
1	1840	338
1	1791	339
1	1760	340
1	1731	341
1	1724	342
1	1731	343
1	1741	344
1	1765	345
1	1798	346
1	1834	347
1	1868	348
1	1907	349
1	1942	350
1	1970	351
1	1987	352
1	2001	353
1	2012	354
1	2013	355
1	2009	356
1	2003	357
1	2004	358
1	1996	359
1	1983	360
1	1962	361
1	1938	362
1	1913	363
1	1885	364
1	1854	365
1	1821	366
1	1791	367
1	1782	368
1	1786	369
1	1791	370
1	1803	371
1	1809	372
1	1809	373
1	1810	374
1	1813	375
1	1817	376
1	1819	377
1	1831	378
1	1841	379
1	1855	380
1	1869	381
1	1888	382
1	1904	383
1	1922	384
1	1931	385
1	1935	386
1	1939	387
1	1946	388
1	1949	389
1	1953	390
1	1953	391
1	1953	392
1	1949	393
1	1942	394
1	1929	395
1	1911	396
1	1894	397
1	1879	398
1	1869	399
1	1868	400
1	1868	401
1	1870	402
1	1880	403
1	1886	404
1	1893	405
1	1895	406
1	1904	407
1	1913	408
1	1917	409
1	1926	410
1	1932	411
1	1931	412
1	1932	413
1	1939	414
1	1935	415
1	1935	416
1	1933	417
1	1932	418
1	1926	419
1	1895	440
1	1895	441
1	1893	442
1	1896	443
1	1909	444
1	1922	445
1	1948	446
1	1963	447
1	1984	448
1	2000	449
1	2012	450
1	2014	451
1	2021	452
1	2019	453
1	2011	454
1	1993	455
1	1974	456
1	1948	457
1	1921	458
1	1881	459
1	1917	440
1	1906	441
1	1895	442
1	1886	443
1	1879	444
1	1877	445
1	1881	446
1	1889	447
1	1893	448
1	1884	449
1	1885	450
1	1877	451
1	1872	452
1	1869	453
1	1866	454
1	1867	455
1	1863	456
1	1869	457
1	1880	458
1	1883	459
1	1835	460
1	1796	461
1	1764	462
1	1746	463
1	1729	464
1	1729	465
1	1742	466
1	1764	467
1	1792	468
1	1820	469
1	1844	470
1	1860	471
1	1870	472
1	1880	473
1	1895	474
1	1898	475
1	1900	476
1	1898	477
1	1895	478
1	1891	479
1	1843	500
1	1855	501
1	1872	502
1	1898	503
1	1924	504
1	1940	505
1	1946	506
1	1940	507
1	1931	508
1	1921	509
1	1908	510
1	1895	511
1	1877	512
1	1866	513
1	1847	514
1	1839	515
1	1840	516
1	1838	517
1	1841	518
1	1845	519
1	1880	480
1	1869	481
1	1860	482
1	1857	483
1	1845	484
1	1842	485
1	1840	486
1	1842	487
1	1847	488
1	1857	489
1	1859	490
1	1864	491
1	1861	492
1	1857	493
1	1854	494
1	1848	495
1	1845	496
1	1847	497
1	1848	498
1	1843	499
1	1840	540
1	1834	541
1	1828	542
1	1827	543
1	1834	544
1	1843	545
1	1856	546
1	1869	547
1	1886	548
1	1908	549
1	1924	550
1	1948	551
1	1967	552
1	1974	553
1	1974	554
1	1976	555
1	1992	556
1	2021	557
1	2061	558
1	2101	559
1	1844	540
1	1843	541
1	1841	542
1	1838	543
1	1829	544
1	1818	545
1	1811	546
1	1803	547
1	1808	548
1	1792	549
1	1791	550
1	1795	551
1	1803	552
1	1809	553
1	1820	554
1	1831	555
1	1842	556
1	1846	557
1	1845	558
1	1841	559
1	2147	560
1	2197	561
1	2257	562
1	2317	563
1	2393	564
1	2458	565
1	2509	566
1	2551	567
1	2591	568
1	2624	569
1	2639	570
1	2635	571
1	2609	572
1	2573	573
1	2523	574
1	2471	575
1	2401	576
1	2332	577
1	2262	578
1	2193	579
1	1711	600
1	1721	601
1	1730	602
1	1739	603
1	1747	604
1	1760	605
1	1777	606
1	1791	607
1	1801	608
1	1816	609
1	1822	610
1	1830	611
1	1832	612
1	1824	613
1	1803	614
1	1785	615
1	1761	616
1	1742	617
1	1734	618
1	1723	619
1	2122	580
1	2055	581
1	1989	582
1	1919	583
1	1854	584
1	1782	585
1	1720	586
1	1672	587
1	1631	588
1	1592	589
1	1569	590
1	1561	591
1	1564	592
1	1580	593
1	1605	594
1	1625	595
1	1647	596
1	1665	597
1	1685	598
1	1699	599
1	1715	620
1	1715	621
1	1716	622
1	1723	623
1	1738	624
1	1747	625
1	1753	626
1	1764	627
1	1772	628
1	1768	629
1	1763	630
1	1750	631
1	1728	632
1	1706	633
1	1684	634
1	1660	635
1	1641	636
1	1634	637
1	1634	638
1	1646	639
1	1589	660
1	1594	661
1	1603	662
1	1607	663
1	1602	664
1	1595	665
1	1596	666
1	1603	667
1	1618	668
1	1646	669
1	1672	670
1	1701	671
1	1728	672
1	1747	673
1	1763	674
1	1764	675
1	1751	676
1	1729	677
1	1706	678
1	1686	679
1	1657	640
1	1667	641
1	1692	642
1	1705	643
1	1709	644
1	1712	645
1	1713	646
1	1712	647
1	1705	648
1	1695	649
1	1683	650
1	1668	651
1	1651	652
1	1636	653
1	1629	654
1	1625	655
1	1618	656
1	1609	657
1	1599	658
1	1591	659
1	1677	680
1	1677	681
1	1685	682
1	1696	683
1	1718	684
1	1738	685
1	1760	686
1	1787	687
1	1809	688
1	1827	689
1	1838	690
1	1836	691
1	1827	692
1	1811	693
1	1780	694
1	1757	695
1	1738	696
1	1717	697
1	1705	698
1	1703	699
1	1703	700
1	1710	701
1	1721	702
1	1736	703
1	1743	704
1	1754	705
1	1764	706
1	1779	707
1	1796	708
1	1809	709
1	1817	710
1	1825	711
1	1832	712
1	1836	713
1	1842	714
1	1841	715
1	1841	716
1	1841	717
1	1839	718
1	1831	719
1	1814	720
1	1788	721
1	1762	722
1	1736	723
1	1709	724
1	1697	725
1	1687	726
1	1678	727
1	1671	728
1	1684	729
1	1691	730
1	1698	731
1	1715	732
1	1721	733
1	1720	734
1	1713	735
1	1711	736
1	1703	737
1	1699	738
1	1695	739
1	1697	740
1	1699	741
1	1704	742
1	1710	743
1	1719	744
1	1726	745
1	1733	746
1	1742	747
1	1757	748
1	1769	749
1	1782	750
1	1796	751
1	1814	752
1	1825	753
1	1835	754
1	1845	755
1	1855	756
1	1856	757
1	1855	758
1	1854	759
1	1845	760
1	1843	761
1	1843	762
1	1844	763
1	1845	764
1	1846	765
1	1845	766
1	1841	767
1	1828	768
1	1807	769
1	1782	770
1	1762	771
1	1739	772
1	1721	773
1	1712	774
1	1701	775
1	1699	776
1	1698	777
1	1699	778
1	1701	779
1	1704	780
1	1710	781
1	1714	782
1	1726	783
1	1733	784
1	1747	785
1	1765	786
1	1785	787
1	1808	788
1	1831	789
1	1847	790
1	1867	791
1	1878	792
1	1886	793
1	1886	794
1	1881	795
1	1874	796
1	1862	797
1	1847	798
1	1825	799
1	1801	800
1	1779	801
1	1757	802
1	1735	803
1	1722	804
1	1705	805
1	1686	806
1	1664	807
1	1647	808
1	1634	809
1	1633	810
1	1638	811
1	1652	812
1	1675	813
1	1697	814
1	1720	815
1	1738	816
1	1747	817
1	1742	818
1	1738	819
1	1718	820
1	1701	821
1	1687	822
1	1679	823
1	1674	824
1	1674	825
1	1679	826
1	1685	827
1	1691	828
1	1693	829
1	1695	830
1	1691	831
1	1688	832
1	1687	833
1	1693	834
1	1692	835
1	1687	836
1	1680	837
1	1670	838
1	1655	839
1	1643	840
1	1636	841
1	1634	842
1	1633	843
1	1629	844
1	1631	845
1	1625	846
1	1619	847
1	1608	848
1	1598	849
1	1581	850
1	1566	851
1	1549	852
1	1525	853
1	1501	854
1	1474	855
1	1437	856
1	1405	857
1	1378	858
1	1371	859
1	1374	860
1	1396	861
1	1422	862
1	1450	863
1	1490	864
1	1521	865
1	1548	866
1	1564	867
1	1567	868
1	1566	869
1	1561	870
1	1556	871
1	1553	872
1	1545	873
1	1534	874
1	1521	875
1	1503	876
1	1481	877
1	1458	878
1	1439	879
1	1477	900
1	1476	901
1	1477	902
1	1479	903
1	1469	904
1	1455	905
1	1446	906
1	1437	907
1	1432	908
1	1427	909
1	1416	910
1	1400	911
1	1384	912
1	1372	913
1	1364	914
1	1364	915
1	1372	916
1	1382	917
1	1398	918
1	1407	919
1	1419	880
1	1404	881
1	1396	882
1	1384	883
1	1381	884
1	1379	885
1	1392	886
1	1404	887
1	1422	888
1	1437	889
1	1460	890
1	1485	891
1	1503	892
1	1521	893
1	1529	894
1	1529	895
1	1521	896
1	1510	897
1	1502	898
1	1489	899
1	1422	920
1	1437	921
1	1459	922
1	1481	923
1	1503	924
1	1520	925
1	1531	926
1	1539	927
1	1536	928
1	1525	929
1	1503	930
1	1485	931
1	1463	932
1	1441	933
1	1422	934
1	1413	935
1	1424	936
1	1438	937
1	1458	938
1	1481	939
1	1490	940
1	1503	941
1	1503	942
1	1494	943
1	1485	944
1	1476	945
1	1456	946
1	1436	947
1	1401	948
1	1371	949
1	1346	950
1	1324	951
1	1310	952
1	1297	953
1	1296	954
1	1305	955
1	1325	956
1	1356	957
1	1405	958
1	1450	959
1	1490	960
1	1523	961
1	1548	962
1	1566	963
1	1570	964
1	1569	965
1	1562	966
1	1554	967
1	1536	968
1	1525	969
1	1510	970
1	1508	971
1	1510	972
1	1515	973
1	1517	974
1	1523	975
1	1521	976
1	1511	977
1	1499	978
1	1486	979
1	1489	1000
1	1495	1001
1	1505	1002
1	1521	1003
1	1542	1004
1	1553	1005
1	1553	1006
1	1548	1007
1	1541	1008
1	1531	1009
1	1527	1010
1	1526	1011
1	1527	1012
1	1530	1013
1	1529	1014
1	1529	1015
1	1526	1016
1	1513	1017
1	1498	1018
1	1481	1019
1	1463	1000
1	1454	1001
1	1454	1002
1	1458	1003
1	1462	1004
1	1467	1005
1	1474	1006
1	1481	1007
1	1485	1008
1	1479	1009
1	1481	1010
1	1487	1011
1	1496	1012
1	1503	1013
1	1510	1014
1	1512	1015
1	1513	1016
1	1512	1017
1	1512	1018
1	1512	1019
1	1515	1020
1	1517	1021
1	1518	1022
1	1521	1023
1	1515	1024
1	1517	1025
1	1518	1026
1	1523	1027
1	1529	1028
1	1542	1029
1	1548	1030
1	1544	1031
1	1541	1032
1	1540	1033
1	1544	1034
1	1553	1035
1	1560	1036
1	1568	1037
1	1573	1038
1	1575	1039
1	1581	1040
1	1591	1041
1	1596	1042
1	1594	1043
1	1588	1044
1	1571	1045
1	1557	1046
1	1554	1047
1	1544	1048
1	1533	1049
1	1530	1050
1	1530	1051
1	1533	1052
1	1539	1053
1	1545	1054
1	1555	1055
1	1557	1056
1	1555	1057
1	1551	1058
1	1544	1059
1	1466	1080
1	1467	1081
1	1467	1082
1	1469	1083
1	1469	1084
1	1476	1085
1	1484	1086
1	1490	1087
1	1500	1088
1	1520	1089
1	1538	1090
1	1554	1091
1	1564	1092
1	1562	1093
1	1553	1094
1	1533	1095
1	1518	1096
1	1503	1097
1	1486	1098
1	1462	1099
1	1542	1060
1	1531	1061
1	1520	1062
1	1505	1063
1	1487	1064
1	1466	1065
1	1441	1066
1	1425	1067
1	1422	1068
1	1413	1069
1	1420	1070
1	1435	1071
1	1450	1072
1	1466	1073
1	1479	1074
1	1477	1075
1	1469	1076
1	1464	1077
1	1463	1078
1	1463	1079
1	1440	1100
1	1422	1101
1	1402	1102
1	1398	1103
1	1413	1104
1	1442	1105
1	1476	1106
1	1508	1107
1	1544	1108
1	1577	1109
1	1605	1110
1	1623	1111
1	1628	1112
1	1621	1113
1	1595	1114
1	1566	1115
1	1533	1116
1	1503	1117
1	1481	1118
1	1470	1119
1	1462	1120
1	1463	1121
1	1471	1122
1	1485	1123
1	1502	1124
1	1515	1125
1	1528	1126
1	1536	1127
1	1542	1128
1	1541	1129
1	1535	1130
1	1525	1131
1	1512	1132
1	1503	1133
1	1497	1134
1	1489	1135
1	1477	1136
1	1464	1137
1	1448	1138
1	1422	1139
1	1398	1140
1	1383	1141
1	1381	1142
1	1381	1143
1	1391	1144
1	1399	1145
1	1411	1146
1	1420	1147
1	1424	1148
1	1431	1149
1	1438	1150
1	1445	1151
1	1445	1152
1	1450	1153
1	1450	1154
1	1448	1155
1	1440	1156
1	1425	1157
1	1417	1158
1	1406	1159
1	1402	1160
1	1407	1161
1	1413	1162
1	1415	1163
1	1423	1164
1	1424	1165
1	1427	1166
1	1432	1167
1	1431	1168
1	1429	1169
1	1426	1170
1	1424	1171
1	1415	1172
1	1404	1173
1	1396	1174
1	1391	1175
1	1392	1176
1	1398	1177
1	1405	1178
1	1420	1179
1	1481	1200
1	1494	1201
1	1503	1202
1	1512	1203
1	1513	1204
1	1511	1205
1	1511	1206
1	1510	1207
1	1511	1208
1	1517	1209
1	1513	1210
1	1508	1211
1	1503	1212
1	1494	1213
1	1487	1214
1	1473	1215
1	1456	1216
1	1438	1217
1	1418	1218
1	1395	1219
1	1424	1180
1	1425	1181
1	1425	1182
1	1428	1183
1	1427	1184
1	1427	1185
1	1423	1186
1	1415	1187
1	1412	1188
1	1410	1189
1	1413	1190
1	1418	1191
1	1426	1192
1	1436	1193
1	1449	1194
1	1453	1195
1	1459	1196
1	1461	1197
1	1466	1198
1	1475	1199
1	1372	1220
1	1363	1221
1	1359	1222
1	1362	1223
1	1363	1224
1	1359	1225
1	1359	1226
1	1363	1227
1	1366	1228
1	1369	1229
1	1372	1230
1	1373	1231
1	1377	1232
1	1384	1233
1	1384	1234
1	1391	1235
1	1398	1236
1	1412	1237
1	1425	1238
1	1439	1239
1	1439	1240
1	1443	1241
1	1440	1242
1	1439	1243
1	1433	1244
1	1436	1245
1	1441	1246
1	1448	1247
1	1447	1248
1	1448	1249
1	1446	1250
1	1440	1251
1	1426	1252
1	1404	1253
1	1372	1254
1	1351	1255
1	1345	1256
1	1341	1257
1	1351	1258
1	1364	1259
1	1468	1280
1	1467	1281
1	1469	1282
1	1476	1283
1	1488	1284
1	1499	1285
1	1507	1286
1	1520	1287
1	1529	1288
1	1536	1289
1	1530	1290
1	1518	1291
1	1503	1292
1	1490	1293
1	1466	1294
1	1440	1295
1	1411	1296
1	1380	1297
1	1359	1298
1	1351	1299
1	1379	1260
1	1398	1261
1	1410	1262
1	1424	1263
1	1430	1264
1	1440	1265
1	1450	1266
1	1462	1267
1	1465	1268
1	1475	1269
1	1476	1270
1	1476	1271
1	1474	1272
1	1464	1273
1	1462	1274
1	1465	1275
1	1472	1276
1	1477	1277
1	1481	1278
1	1476	1279
1	1346	1300
1	1345	1301
1	1346	1302
1	1355	1303
1	1367	1304
1	1382	1305
1	1398	1306
1	1413	1307
1	1428	1308
1	1436	1309
1	1449	1310
1	1453	1311
1	1456	1312
1	1456	1313
1	1466	1314
1	1472	1315
1	1476	1316
1	1479	1317
1	1481	1318
1	1476	1319
1	1403	1340
1	1366	1341
1	1340	1342
1	1322	1343
1	1319	1344
1	1322	1345
1	1338	1346
1	1360	1347
1	1384	1348
1	1407	1349
1	1424	1350
1	1436	1351
1	1437	1352
1	1436	1353
1	1437	1354
1	1432	1355
1	1423	1356
1	1411	1357
1	1391	1358
1	1369	1359
1	1467	1320
1	1450	1321
1	1433	1322
1	1422	1323
1	1413	1324
1	1420	1325
1	1429	1326
1	1439	1327
1	1453	1328
1	1476	1329
1	1494	1330
1	1511	1331
1	1527	1332
1	1531	1333
1	1530	1334
1	1526	1335
1	1508	1336
1	1489	1337
1	1463	1338
1	1436	1339
1	1359	1360
1	1350	1361
1	1346	1362
1	1348	1363
1	1358	1364
1	1373	1365
1	1395	1366
1	1415	1367
1	1429	1368
1	1432	1369
1	1433	1370
1	1429	1371
1	1423	1372
1	1411	1373
1	1400	1374
1	1382	1375
1	1368	1376
1	1350	1377
1	1338	1378
1	1327	1379
1	1316	1380
1	1302	1381
1	1292	1382
1	1283	1383
1	1275	1384
1	1267	1385
1	1265	1386
1	1265	1387
1	1266	1388
1	1272	1389
1	1273	1390
1	1273	1391
1	1271	1392
1	1273	1393
1	1275	1394
1	1275	1395
1	1278	1396
1	1280	1397
1	1286	1398
1	1287	1399
1	1292	1400
1	1295	1401
1	1302	1402
1	1310	1403
1	1330	1404
1	1349	1405
1	1374	1406
1	1409	1407
1	1437	1408
1	1461	1409
1	1476	1410
1	1472	1411
1	1459	1412
1	1440	1413
1	1417	1414
1	1393	1415
1	1359	1416
1	1332	1417
1	1304	1418
1	1289	1419
1	1281	1420
1	1289	1421
1	1309	1422
1	1334	1423
1	1371	1424
1	1413	1425
1	1458	1426
1	1505	1427
1	1555	1428
1	1594	1429
1	1639	1430
1	1687	1431
1	1737	1432
1	1787	1433
1	1841	1434
1	1869	1435
1	1890	1436
1	1899	1437
1	1913	1438
1	1918	1439
1	1272	1460
1	1241	1461
1	1223	1462
1	1214	1463
1	1212	1464
1	1210	1465
1	1214	1466
1	1220	1467
1	1229	1468
1	1242	1469
1	1259	1470
1	1268	1471
1	1281	1472
1	1293	1473
1	1294	1474
1	1291	1475
1	1279	1476
1	1262	1477
1	1250	1478
1	1240	1479
1	1927	1440
1	1940	1441
1	1952	1442
1	1974	1443
1	2004	1444
1	2034	1445
1	2053	1446
1	2054	1447
1	2043	1448
1	2016	1449
1	1975	1450
1	1922	1451
1	1850	1452
1	1767	1453
1	1683	1454
1	1597	1455
1	1520	1456
1	1449	1457
1	1380	1458
1	1319	1459
1	1224	1480
1	1209	1481
1	1198	1482
1	1197	1483
1	1206	1484
1	1224	1485
1	1250	1486
1	1277	1487
1	1301	1488
1	1317	1489
1	1327	1490
1	1330	1491
1	1325	1492
1	1314	1493
1	1295	1494
1	1271	1495
1	1243	1496
1	1219	1497
1	1198	1498
1	1188	1499
1	1188	1500
1	1194	1501
1	1213	1502
1	1228	1503
1	1241	1504
1	1253	1505
1	1265	1506
1	1269	1507
1	1271	1508
1	1273	1509
1	1268	1510
1	1269	1511
1	1272	1512
1	1276	1513
1	1274	1514
1	1266	1515
1	1250	1516
1	1237	1517
1	1223	1518
1	1215	1519
1	1215	1520
1	1233	1521
1	1251	1522
1	1269	1523
1	1293	1524
1	1310	1525
1	1319	1526
1	1319	1527
1	1315	1528
1	1305	1529
1	1292	1530
1	1275	1531
1	1258	1532
1	1243	1533
1	1228	1534
1	1211	1535
1	1193	1536
1	1183	1537
1	1175	1538
1	1173	1539
1	1166	1540
1	1175	1541
1	1178	1542
1	1188	1543
1	1206	1544
1	1219	1545
1	1230	1546
1	1239	1547
1	1242	1548
1	1242	1549
1	1243	1550
1	1243	1551
1	1241	1552
1	1233	1553
1	1227	1554
1	1216	1555
1	1215	1556
1	1212	1557
1	1215	1558
1	1213	1559
1	1211	1560
1	1214	1561
1	1220	1562
1	1228	1563
1	1235	1564
1	1242	1565
1	1246	1566
1	1243	1567
1	1245	1568
1	1247	1569
1	1247	1570
1	1251	1571
1	1250	1572
1	1243	1573
1	1237	1574
1	1228	1575
1	1219	1576
1	1215	1577
1	1211	1578
1	1210	1579
1	1227	1600
1	1233	1601
1	1245	1602
1	1264	1603
1	1280	1604
1	1298	1605
1	1318	1606
1	1332	1607
1	1350	1608
1	1363	1609
1	1368	1610
1	1357	1611
1	1331	1612
1	1305	1613
1	1286	1614
1	1267	1615
1	1254	1616
1	1241	1617
1	1229	1618
1	1216	1619
1	1215	1600
1	1228	1601
1	1241	1602
1	1251	1603
1	1265	1604
1	1265	1605
1	1267	1606
1	1267	1607
1	1277	1608
1	1287	1609
1	1293	1610
1	1296	1611
1	1294	1612
1	1288	1613
1	1275	1614
1	1266	1615
1	1250	1616
1	1238	1617
1	1229	1618
1	1229	1619
1	1197	1620
1	1171	1621
1	1150	1622
1	1140	1623
1	1138	1624
1	1149	1625
1	1171	1626
1	1199	1627
1	1227	1628
1	1250	1629
1	1266	1630
1	1278	1631
1	1289	1632
1	1297	1633
1	1310	1634
1	1317	1635
1	1319	1636
1	1320	1637
1	1319	1638
1	1309	1639
1	1291	1660
1	1269	1661
1	1256	1662
1	1241	1663
1	1238	1664
1	1241	1665
1	1250	1666
1	1258	1667
1	1263	1668
1	1262	1669
1	1260	1670
1	1258	1671
1	1258	1672
1	1251	1673
1	1245	1674
1	1239	1675
1	1228	1676
1	1215	1677
1	1203	1678
1	1184	1679
1	1312	1640
1	1314	1641
1	1319	1642
1	1332	1643
1	1345	1644
1	1358	1645
1	1370	1646
1	1372	1647
1	1384	1648
1	1383	1649
1	1382	1650
1	1379	1651
1	1377	1652
1	1377	1653
1	1372	1654
1	1361	1655
1	1350	1656
1	1338	1657
1	1322	1658
1	1307	1659
1	1172	1680
1	1170	1681
1	1175	1682
1	1179	1683
1	1176	1684
1	1181	1685
1	1188	1686
1	1194	1687
1	1194	1688
1	1199	1689
1	1193	1690
1	1175	1691
1	1145	1692
1	1111	1693
1	1076	1694
1	1045	1695
1	1022	1696
1	1006	1697
1	997	1698
1	1004	1699
1	1027	1700
1	1071	1701
1	1110	1702
1	1145	1703
1	1179	1704
1	1201	1705
1	1215	1706
1	1222	1707
1	1222	1708
1	1210	1709
1	1187	1710
1	1162	1711
1	1139	1712
1	1121	1713
1	1089	1714
1	1060	1715
1	1032	1716
1	1005	1717
1	979	1718
1	961	1719
1	955	1720
1	954	1721
1	958	1722
1	980	1723
1	998	1724
1	1003	1725
1	1005	1726
1	1008	1727
1	1010	1728
1	1005	1729
1	1005	1730
1	1006	1731
1	1009	1732
1	1019	1733
1	1031	1734
1	1041	1735
1	1035	1736
1	1031	1737
1	1027	1738
1	1020	1739
1	995	1740
1	965	1741
1	954	1742
1	972	1743
1	987	1744
1	1014	1745
1	1042	1746
1	1072	1747
1	1092	1748
1	1095	1749
1	1096	1750
1	1097	1751
1	1102	1752
1	1112	1753
1	1107	1754
1	1092	1755
1	1084	1756
1	1093	1757
1	1089	1758
1	1071	1759
1	1057	1760
1	1049	1761
1	1042	1762
1	1034	1763
1	1031	1764
1	1026	1765
1	1026	1766
1	1031	1767
1	1034	1768
1	1038	1769
1	1047	1770
1	1062	1771
1	1080	1772
1	1094	1773
1	1108	1774
1	1110	1775
1	1115	1776
1	1099	1777
1	1076	1778
1	1063	1779
1	1052	1780
1	1045	1781
1	1058	1782
1	1067	1783
1	1079	1784
1	1095	1785
1	1122	1786
1	1146	1787
1	1167	1788
1	1194	1789
1	1215	1790
1	1230	1791
1	1238	1792
1	1240	1793
1	1235	1794
1	1220	1795
1	1188	1796
1	1153	1797
1	1137	1798
1	1127	1799
1	1117	1800
1	1111	1801
1	1119	1802
1	1127	1803
1	1136	1804
1	1137	1805
1	1136	1806
1	1136	1807
1	1135	1808
1	1135	1809
1	1136	1810
1	1135	1811
1	1135	1812
1	1137	1813
1	1149	1814
1	1158	1815
1	1161	1816
1	1155	1817
1	1152	1818
1	1162	1819
1	1175	1820
1	1179	1821
1	1186	1822
1	1191	1823
1	1206	1824
1	1217	1825
1	1230	1826
1	1245	1827
1	1255	1828
1	1263	1829
1	1268	1830
1	1269	1831
1	1274	1832
1	1269	1833
1	1256	1834
1	1251	1835
1	1250	1836
1	1241	1837
1	1219	1838
1	1210	1839
1	1255	1860
1	1267	1861
1	1280	1862
1	1295	1863
1	1310	1864
1	1332	1865
1	1360	1866
1	1379	1867
1	1382	1868
1	1384	1869
1	1376	1870
1	1373	1871
1	1369	1872
1	1358	1873
1	1346	1874
1	1332	1875
1	1309	1876
1	1283	1877
1	1251	1878
1	1214	1879
1	1188	1840
1	1175	1841
1	1158	1842
1	1152	1843
1	1155	1844
1	1157	1845
1	1161	1846
1	1166	1847
1	1175	1848
1	1192	1849
1	1215	1850
1	1229	1851
1	1242	1852
1	1251	1853
1	1252	1854
1	1242	1855
1	1233	1856
1	1237	1857
1	1237	1858
1	1243	1859
1	1450	1900
1	1437	1901
1	1423	1902
1	1402	1903
1	1394	1904
1	1377	1905
1	1364	1906
1	1352	1907
1	1350	1908
1	1345	1909
1	1341	1910
1	1341	1911
1	1344	1912
1	1346	1913
1	1346	1914
1	1341	1915
1	1332	1916
1	1319	1917
1	1311	1918
1	1301	1919
1	1175	1880
1	1145	1881
1	1122	1882
1	1107	1883
1	1108	1884
1	1118	1885
1	1134	1886
1	1160	1887
1	1202	1888
1	1256	1889
1	1319	1890
1	1380	1891
1	1430	1892
1	1459	1893
1	1468	1894
1	1476	1895
1	1476	1896
1	1476	1897
1	1471	1898
1	1465	1899
1	1456	1940
1	1438	1941
1	1423	1942
1	1404	1943
1	1390	1944
1	1381	1945
1	1384	1946
1	1409	1947
1	1426	1948
1	1443	1949
1	1455	1950
1	1463	1951
1	1465	1952
1	1462	1953
1	1455	1954
1	1450	1955
1	1440	1956
1	1424	1957
1	1406	1958
1	1397	1959
1	1293	1920
1	1288	1921
1	1278	1922
1	1271	1923
1	1265	1924
1	1263	1925
1	1268	1926
1	1287	1927
1	1311	1928
1	1342	1929
1	1371	1930
1	1398	1931
1	1424	1932
1	1449	1933
1	1469	1934
1	1491	1935
1	1505	1936
1	1505	1937
1	1498	1938
1	1476	1939
1	1531	2000
1	1553	2001
1	1573	2002
1	1584	2003
1	1606	2004
1	1620	2005
1	1635	2006
1	1649	2007
1	1651	2008
1	1649	2009
1	1660	2010
1	1665	2011
1	1661	2012
1	1652	2013
1	1637	2014
1	1626	2015
1	1613	2016
1	1597	2017
1	1579	2018
1	1559	2019
1	1404	1980
1	1397	1981
1	1396	1982
1	1400	1983
1	1407	1984
1	1422	1985
1	1430	1986
1	1443	1987
1	1459	1988
1	1476	1989
1	1476	1990
1	1472	1991
1	1461	1992
1	1451	1993
1	1453	1994
1	1472	1995
1	1489	1996
1	1495	1997
1	1503	1998
1	1517	1999
1	1381	1960
1	1377	1961
1	1384	1962
1	1395	1963
1	1408	1964
1	1426	1965
1	1450	1966
1	1476	1967
1	1505	1968
1	1532	1969
1	1551	1970
1	1558	1971
1	1555	1972
1	1549	1973
1	1537	1974
1	1529	1975
1	1508	1976
1	1481	1977
1	1450	1978
1	1424	1979
1	1530	2020
1	1503	2021
1	1476	2022
1	1463	2023
1	1463	2024
1	1473	2025
1	1481	2026
1	1503	2027
1	1533	2028
1	1562	2029
1	1595	2030
1	1634	2031
1	1681	2032
1	1706	2033
1	1717	2034
1	1711	2035
1	1695	2036
1	1686	2037
1	1672	2038
1	1652	2039
1	1634	2040
1	1609	2041
1	1590	2042
1	1572	2043
1	1562	2044
1	1567	2045
1	1579	2046
1	1587	2047
1	1593	2048
1	1597	2049
1	1607	2050
1	1607	2051
1	1618	2052
1	1616	2053
1	1607	2054
1	1595	2055
1	1579	2056
1	1566	2057
1	1562	2058
1	1556	2059
1	1563	2060
1	1580	2061
1	1598	2062
1	1628	2063
1	1660	2064
1	1682	2065
1	1700	2066
1	1715	2067
1	1724	2068
1	1723	2069
1	1721	2070
1	1715	2071
1	1712	2072
1	1713	2073
1	1706	2074
1	1700	2075
1	1693	2076
1	1685	2077
1	1664	2078
1	1650	2079
1	1634	2080
1	1625	2081
1	1621	2082
1	1618	2083
1	1625	2084
1	1636	2085
1	1638	2086
1	1639	2087
1	1655	2088
1	1669	2089
1	1679	2090
1	1695	2091
1	1726	2092
1	1764	2093
1	1796	2094
1	1816	2095
1	1817	2096
1	1815	2097
1	1809	2098
1	1812	2099
1	1817	2100
1	1818	2101
1	1828	2102
1	1831	2103
1	1827	2104
1	1829	2105
1	1816	2106
1	1791	2107
1	1788	2108
1	1796	2109
1	1811	2110
1	1812	2111
1	1795	2112
1	1788	2113
1	1775	2114
1	1755	2115
1	1740	2116
1	1728	2117
1	1730	2118
1	1723	2119
1	1932	2140
1	1952	2141
1	1971	2142
1	1990	2143
1	2025	2144
1	2039	2145
1	2063	2146
1	2081	2147
1	2086	2148
1	2076	2149
1	2056	2150
1	2040	2151
1	2025	2152
1	2006	2153
1	1996	2154
1	1981	2155
1	1956	2156
1	1948	2157
1	1948	2158
1	1965	2159
1	1725	2120
1	1733	2121
1	1739	2122
1	1742	2123
1	1744	2124
1	1741	2125
1	1743	2126
1	1751	2127
1	1770	2128
1	1803	2129
1	1848	2130
1	1895	2131
1	1931	2132
1	1948	2133
1	1953	2134
1	1955	2135
1	1952	2136
1	1948	2137
1	1940	2138
1	1940	2139
1	2000	2160
1	2035	2161
1	2065	2162
1	2083	2163
1	2092	2164
1	2093	2165
1	2093	2166
1	2094	2167
1	2096	2168
1	2101	2169
1	2106	2170
1	2117	2171
1	2131	2172
1	2130	2173
1	2109	2174
1	2092	2175
1	2087	2176
1	2078	2177
1	2060	2178
1	2048	2179
1	2052	2180
1	2067	2181
1	2089	2182
1	2105	2183
1	2125	2184
1	2131	2185
1	2137	2186
1	2150	2187
1	2158	2188
1	2175	2189
1	2206	2190
1	2240	2191
1	2266	2192
1	2286	2193
1	2287	2194
1	2291	2195
1	2299	2196
1	2287	2197
1	2262	2198
1	2240	2199
1	2210	2200
1	2183	2201
1	2176	2202
1	2180	2203
1	2200	2204
1	2242	2205
1	2291	2206
1	2341	2207
1	2397	2208
1	2449	2209
1	2494	2210
1	2511	2211
1	2524	2212
1	2544	2213
1	2569	2214
1	2578	2215
1	2580	2216
1	2581	2217
1	2581	2218
1	2574	2219
1	2562	2220
1	2550	2221
1	2546	2222
1	2556	2223
1	2558	2224
1	2571	2225
1	2592	2226
1	2600	2227
1	2608	2228
1	2624	2229
1	2635	2230
1	2644	2231
1	2652	2232
1	2652	2233
1	2657	2234
1	2661	2235
1	2664	2236
1	2674	2237
1	2695	2238
1	2707	2239
1	2722	2240
1	2745	2241
1	2758	2242
1	2774	2243
1	2793	2244
1	2810	2245
1	2836	2246
1	2850	2247
1	2853	2248
1	2851	2249
1	2852	2250
1	2851	2251
1	2845	2252
1	2844	2253
1	2845	2254
1	2841	2255
1	2840	2256
1	2837	2257
1	2852	2258
1	2862	2259
1	2887	2260
1	2920	2261
1	2959	2262
1	3003	2263
1	3053	2264
1	3095	2265
1	3130	2266
1	3130	2267
1	3130	2268
1	3130	2269
1	3112	2270
1	3097	2271
1	3098	2272
1	3091	2273
1	3073	2274
1	3069	2275
1	3072	2276
1	3072	2277
1	3070	2278
1	3073	2279
1	3081	2280
1	3083	2281
1	3091	2282
1	3125	2283
1	3130	2284
1	3130	2285
1	3130	2286
1	3130	2287
1	3130	2288
1	3130	2289
1	3130	2290
1	3130	2291
1	3130	2292
1	3130	2293
1	3130	2294
1	3130	2295
1	3130	2296
1	3130	2297
1	3130	2298
1	3130	2299
1	3130	2300
1	3130	2301
1	3130	2302
1	3130	2303
1	3130	2304
1	3130	2305
1	3130	2306
1	3130	2307
1	3130	2308
1	3130	2309
1	3130	2310
1	3130	2311
1	3130	2312
1	3130	2313
1	3130	2314
1	3130	2315
1	3130	2316
1	3130	2317
1	3130	2318
1	3130	2319
1	3130	2320
1	3130	2321
1	3130	2322
1	3130	2323
1	3130	2324
1	3130	2325
1	3130	2326
1	3130	2327
1	3130	2328
1	3130	2329
1	3130	2330
1	3130	2331
1	3130	2332
1	3130	2333
1	3130	2334
1	3130	2335
1	3130	2336
1	3130	2337
1	3130	2338
1	3130	2339
1	3130	2340
1	3130	2341
1	3130	2342
1	3130	2343
1	3130	2344
1	3130	2345
1	3130	2346
1	3130	2347
1	3130	2348
1	3130	2349
1	3130	2350
1	3130	2351
1	3130	2352
1	3130	2353
1	3130	2354
1	3130	2355
1	3130	2356
1	3130	2357
1	3130	2358
1	3130	2359
1	3130	2380
1	3130	2381
1	3130	2382
1	3130	2383
1	3130	2384
1	3130	2385
1	3130	2386
1	3130	2387
1	3130	2388
1	3130	2389
1	3130	2390
1	3130	2391
1	3130	2392
1	3130	2393
1	3130	2394
1	3130	2395
1	3130	2396
1	3130	2397
1	3130	2398
1	3130	2399
1	3130	2360
1	3130	2361
1	3130	2362
1	3130	2363
1	3130	2364
1	3130	2365
1	3130	2366
1	3130	2367
1	3130	2368
1	3130	2369
1	3130	2370
1	3130	2371
1	3130	2372
1	3130	2373
1	3130	2374
1	3130	2375
1	3130	2376
1	3130	2377
1	3130	2378
1	3130	2379
1	3130	2400
1	3130	2401
1	3130	2402
1	3130	2403
1	3130	2404
1	3130	2405
1	3130	2406
1	3130	2407
1	3130	2408
1	3130	2409
1	3130	2410
1	3130	2411
1	3130	2412
1	3130	2413
1	3130	2414
1	3130	2415
1	3130	2416
1	3113	2417
1	3085	2418
1	3066	2419
1	3046	2420
1	3032	2421
1	3018	2422
1	3001	2423
1	2987	2424
1	2977	2425
1	2968	2426
1	2967	2427
1	2975	2428
1	2984	2429
1	2995	2430
1	3000	2431
1	3001	2432
1	3003	2433
1	3006	2434
1	2996	2435
1	2988	2436
1	2978	2437
1	2965	2438
1	2949	2439
1	2937	2440
1	2925	2441
1	2905	2442
1	2889	2443
1	2873	2444
1	2861	2445
1	2850	2446
1	2839	2447
1	2836	2448
1	2835	2449
1	2827	2450
1	2818	2451
1	2801	2452
1	2780	2453
1	2748	2454
1	2716	2455
1	2690	2456
1	2670	2457
1	2664	2458
1	2668	2459
1	2682	2460
1	2696	2461
1	2704	2462
1	2707	2463
1	2712	2464
1	2717	2465
1	2725	2466
1	2726	2467
1	2732	2468
1	2738	2469
1	2737	2470
1	2735	2471
1	2735	2472
1	2738	2473
1	2737	2474
1	2725	2475
1	2709	2476
1	2692	2477
1	2667	2478
1	2635	2479
1	2605	2480
1	2581	2481
1	2559	2482
1	2533	2483
1	2516	2484
1	2503	2485
1	2496	2486
1	2496	2487
1	2499	2488
1	2500	2489
1	2502	2490
1	2498	2491
1	2496	2492
1	2496	2493
1	2496	2494
1	2503	2495
1	2514	2496
1	2521	2497
1	2529	2498
1	2540	2499
1	2540	2500
1	2542	2501
1	2535	2502
1	2523	2503
1	2515	2504
1	2504	2505
1	2495	2506
1	2483	2507
1	2471	2508
1	2449	2509
1	2435	2510
1	2422	2511
1	2418	2512
1	2408	2513
1	2401	2514
1	2388	2515
1	2377	2516
1	2369	2517
1	2358	2518
1	2345	2519
1	2332	2520
1	2327	2521
1	2328	2522
1	2339	2523
1	2349	2524
1	2367	2525
1	2381	2526
1	2394	2527
1	2408	2528
1	2432	2529
1	2442	2530
1	2435	2531
1	2411	2532
1	2380	2533
1	2346	2534
1	2318	2535
1	2303	2536
1	2294	2537
1	2287	2538
1	2282	2539
1	2281	2540
1	2288	2541
1	2299	2542
1	2314	2543
1	2322	2544
1	2327	2545
1	2327	2546
1	2331	2547
1	2325	2548
1	2323	2549
1	2323	2550
1	2317	2551
1	2314	2552
1	2309	2553
1	2299	2554
1	2281	2555
1	2254	2556
1	2222	2557
1	2198	2558
1	2183	2559
1	2170	2560
1	2158	2561
1	2156	2562
1	2161	2563
1	2178	2564
1	2198	2565
1	2215	2566
1	2240	2567
1	2254	2568
1	2250	2569
1	2242	2570
1	2237	2571
1	2233	2572
1	2213	2573
1	2199	2574
1	2179	2575
1	2161	2576
1	2155	2577
1	2147	2578
1	2144	2579
1	2148	2580
1	2168	2581
1	2186	2582
1	2209	2583
1	2210	2584
1	2210	2585
1	2204	2586
1	2188	2587
1	2176	2588
1	2178	2589
1	2181	2590
1	2183	2591
1	2183	2592
1	2183	2593
1	2181	2594
1	2173	2595
1	2161	2596
1	2131	2597
1	2113	2598
1	2083	2599
1	2052	2600
1	2023	2601
1	2000	2602
1	1981	2603
1	1974	2604
1	1967	2605
1	1963	2606
1	1965	2607
1	1975	2608
1	1991	2609
1	2007	2610
1	2023	2611
1	2031	2612
1	2034	2613
1	2026	2614
1	2022	2615
1	2015	2616
1	2003	2617
1	1983	2618
1	1959	2619
1	1922	2620
1	1890	2621
1	1856	2622
1	1821	2623
1	1795	2624
1	1777	2625
1	1759	2626
1	1754	2627
1	1764	2628
1	1788	2629
1	1832	2630
1	1882	2631
1	1935	2632
1	1976	2633
1	2025	2634
1	2053	2635
1	2063	2636
1	2045	2637
1	2004	2638
1	1950	2639
1	1816	2660
1	1809	2661
1	1811	2662
1	1816	2663
1	1828	2664
1	1832	2665
1	1829	2666
1	1827	2667
1	1826	2668
1	1825	2669
1	1825	2670
1	1828	2671
1	1830	2672
1	1828	2673
1	1819	2674
1	1817	2675
1	1816	2676
1	1815	2677
1	1813	2678
1	1814	2679
1	1908	2640
1	1867	2641
1	1834	2642
1	1816	2643
1	1796	2644
1	1790	2645
1	1776	2646
1	1751	2647
1	1724	2648
1	1717	2649
1	1734	2650
1	1742	2651
1	1754	2652
1	1766	2653
1	1773	2654
1	1777	2655
1	1783	2656
1	1799	2657
1	1817	2658
1	1819	2659
1	1944	2700
1	1962	2701
1	1981	2702
1	1995	2703
1	2000	2704
1	2009	2705
1	2018	2706
1	2025	2707
1	2025	2708
1	2031	2709
1	2034	2710
1	2027	2711
1	2025	2712
1	2025	2713
1	2016	2714
1	1999	2715
1	1976	2716
1	1962	2717
1	1952	2718
1	1934	2719
1	1814	2680
1	1812	2681
1	1811	2682
1	1800	2683
1	1791	2684
1	1782	2685
1	1780	2686
1	1791	2687
1	1808	2688
1	1817	2689
1	1832	2690
1	1845	2691
1	1862	2692
1	1875	2693
1	1896	2694
1	1907	2695
1	1913	2696
1	1914	2697
1	1921	2698
1	1926	2699
1	2025	2740
1	2026	2741
1	2026	2742
1	2029	2743
1	2043	2744
1	2044	2745
1	2052	2746
1	2057	2747
1	2068	2748
1	2077	2749
1	2078	2750
1	2079	2751
1	2088	2752
1	2096	2753
1	2101	2754
1	2094	2755
1	2076	2756
1	2058	2757
1	2053	2758
1	2052	2759
1	1926	2720
1	1927	2721
1	1940	2722
1	1958	2723
1	1989	2724
1	2014	2725
1	2040	2726
1	2066	2727
1	2089	2728
1	2116	2729
1	2137	2730
1	2150	2731
1	2151	2732
1	2141	2733
1	2120	2734
1	2099	2735
1	2076	2736
1	2052	2737
1	2040	2738
1	2038	2739
1	2055	2760
1	2066	2761
1	2086	2762
1	2115	2763
1	2146	2764
1	2174	2765
1	2209	2766
1	2242	2767
1	2270	2768
1	2301	2769
1	2318	2770
1	2328	2771
1	2332	2772
1	2336	2773
1	2339	2774
1	2341	2775
1	2343	2776
1	2345	2777
1	2346	2778
1	2341	2779
1	2631	2800
1	2623	2801
1	2612	2802
1	2604	2803
1	2593	2804
1	2580	2805
1	2571	2806
1	2562	2807
1	2559	2808
1	2561	2809
1	2569	2810
1	2581	2811
1	2593	2812
1	2602	2813
1	2620	2814
1	2626	2815
1	2639	2816
1	2646	2817
1	2656	2818
1	2670	2819
1	2340	2780
1	2340	2781
1	2337	2782
1	2339	2783
1	2353	2784
1	2367	2785
1	2388	2786
1	2421	2787
1	2463	2788
1	2503	2789
1	2527	2790
1	2551	2791
1	2571	2792
1	2581	2793
1	2591	2794
1	2601	2795
1	2608	2796
1	2622	2797
1	2629	2798
1	2635	2799
1	2681	2820
1	2688	2821
1	2686	2822
1	2682	2823
1	2665	2824
1	2655	2825
1	2647	2826
1	2643	2827
1	2639	2828
1	2647	2829
1	2652	2830
1	2658	2831
1	2666	2832
1	2676	2833
1	2685	2834
1	2696	2835
1	2707	2836
1	2725	2837
1	2734	2838
1	2735	2839
1	2725	2840
1	2706	2841
1	2685	2842
1	2662	2843
1	2640	2844
1	2620	2845
1	2602	2846
1	2583	2847
1	2581	2848
1	2573	2849
1	2575	2850
1	2578	2851
1	2580	2852
1	2581	2853
1	2579	2854
1	2576	2855
1	2569	2856
1	2562	2857
1	2568	2858
1	2581	2859
1	2581	2860
1	2581	2861
1	2584	2862
1	2602	2863
1	2629	2864
1	2657	2865
1	2685	2866
1	2705	2867
1	2711	2868
1	2709	2869
1	2702	2870
1	2691	2871
1	2673	2872
1	2653	2873
1	2637	2874
1	2620	2875
1	2599	2876
1	2590	2877
1	2584	2878
1	2581	2879
1	2591	2880
1	2606	2881
1	2626	2882
1	2644	2883
1	2660	2884
1	2682	2885
1	2702	2886
1	2709	2887
1	2719	2888
1	2732	2889
1	2726	2890
1	2717	2891
1	2711	2892
1	2714	2893
1	2724	2894
1	2734	2895
1	2735	2896
1	2735	2897
1	2737	2898
1	2741	2899
1	2739	2900
1	2737	2901
1	2729	2902
1	2719	2903
1	2704	2904
1	2685	2905
1	2668	2906
1	2658	2907
1	2649	2908
1	2644	2909
1	2646	2910
1	2657	2911
1	2666	2912
1	2675	2913
1	2688	2914
1	2703	2915
1	2713	2916
1	2719	2917
1	2721	2918
1	2725	2919
1	2725	2920
1	2724	2921
1	2719	2922
1	2718	2923
1	2717	2924
1	2724	2925
1	2729	2926
1	2732	2927
1	2732	2928
1	2724	2929
1	2711	2930
1	2702	2931
1	2692	2932
1	2685	2933
1	2685	2934
1	2685	2935
1	2687	2936
1	2686	2937
1	2686	2938
1	2677	2939
1	2671	2940
1	2664	2941
1	2657	2942
1	2654	2943
1	2653	2944
1	2647	2945
1	2644	2946
1	2635	2947
1	2627	2948
1	2609	2949
1	2599	2950
1	2593	2951
1	2596	2952
1	2609	2953
1	2621	2954
1	2625	2955
1	2629	2956
1	2631	2957
1	2639	2958
1	2647	2959
1	2656	2960
1	2668	2961
1	2679	2962
1	2690	2963
1	2706	2964
1	2717	2965
1	2720	2966
1	2720	2967
1	2712	2968
1	2701	2969
1	2695	2970
1	2686	2971
1	2678	2972
1	2666	2973
1	2652	2974
1	2639	2975
1	2625	2976
1	2609	2977
1	2597	2978
1	2592	2979
1	2583	2980
1	2579	2981
1	2580	2982
1	2585	2983
1	2597	2984
1	2605	2985
1	2619	2986
1	2628	2987
1	2637	2988
1	2644	2989
1	2645	2990
1	2646	2991
1	2645	2992
1	2644	2993
1	2644	2994
1	2640	2995
1	2628	2996
1	2601	2997
1	2582	2998
1	2562	2999
1	2540	3000
1	2520	3001
1	2503	3002
1	2495	3003
1	2488	3004
1	2493	3005
1	2499	3006
1	2506	3007
1	2514	3008
1	2526	3009
1	2549	3010
1	2577	3011
1	2602	3012
1	2623	3013
1	2633	3014
1	2642	3015
1	2637	3016
1	2622	3017
1	2601	3018
1	2581	3019
1	2566	3020
1	2545	3021
1	2523	3022
1	2505	3023
1	2500	3024
1	2496	3025
1	2491	3026
1	2485	3027
1	2482	3028
1	2484	3029
1	2493	3030
1	2503	3031
1	2508	3032
1	2509	3033
1	2503	3034
1	2500	3035
1	2496	3036
1	2482	3037
1	2461	3038
1	2447	3039
1	2421	3040
1	2409	3041
1	2389	3042
1	2386	3043
1	2395	3044
1	2394	3045
1	2405	3046
1	2421	3047
1	2438	3048
1	2448	3049
1	2461	3050
1	2468	3051
1	2474	3052
1	2485	3053
1	2493	3054
1	2492	3055
1	2488	3056
1	2480	3057
1	2479	3058
1	2471	3059
1	2457	3060
1	2438	3061
1	2420	3062
1	2404	3063
1	2375	3064
1	2355	3065
1	2341	3066
1	2332	3067
1	2325	3068
1	2333	3069
1	2336	3070
1	2346	3071
1	2365	3072
1	2379	3073
1	2395	3074
1	2421	3075
1	2441	3076
1	2454	3077
1	2464	3078
1	2467	3079
1	2473	3080
1	2487	3081
1	2500	3082
1	2512	3083
1	2525	3084
1	2532	3085
1	2526	3086
1	2516	3087
1	2501	3088
1	2487	3089
1	2471	3090
1	2453	3091
1	2441	3092
1	2431	3093
1	2408	3094
1	2392	3095
1	2376	3096
1	2363	3097
1	2353	3098
1	2359	3099
1	2356	3100
1	2355	3101
1	2356	3102
1	2354	3103
1	2353	3104
1	2354	3105
1	2366	3106
1	2380	3107
1	2391	3108
1	2390	3109
1	2388	3110
1	2386	3111
1	2381	3112
1	2388	3113
1	2399	3114
1	2407	3115
1	2409	3116
1	2404	3117
1	2394	3118
1	2381	3119
1	2366	3120
1	2345	3121
1	2332	3122
1	2314	3123
1	2286	3124
1	2262	3125
1	2242	3126
1	2222	3127
1	2206	3128
1	2198	3129
1	2185	3130
1	2179	3131
1	2179	3132
1	2183	3133
1	2191	3134
1	2197	3135
1	2197	3136
1	2198	3137
1	2205	3138
1	2210	3139
1	2220	3140
1	2230	3141
1	2221	3142
1	2210	3143
1	2184	3144
1	2156	3145
1	2119	3146
1	2094	3147
1	2065	3148
1	2036	3149
1	2010	3150
1	1982	3151
1	1957	3152
1	1930	3153
1	1904	3154
1	1886	3155
1	1869	3156
1	1857	3157
1	1844	3158
1	1814	3159
1	1782	3160
1	1742	3161
1	1701	3162
1	1659	3163
1	1615	3164
1	1574	3165
1	1527	3166
1	1472	3167
1	1409	3168
1	1325	3169
1	1259	3170
1	1188	3171
1	1119	3172
1	1057	3173
1	1005	3174
1	953	3175
1	906	3176
1	861	3177
1	817	3178
1	769	3179
1	128	3200
1	128	3201
1	128	3202
1	128	3203
1	128	3204
1	128	3205
1	128	3206
1	128	3207
1	128	3208
1	128	3209
1	128	3210
1	128	3211
1	128	3212
1	128	3213
1	128	3214
1	128	3215
1	128	3216
1	128	3217
1	128	3218
1	156	3219
1	715	3180
1	661	3181
1	600	3182
1	536	3183
1	481	3184
1	429	3185
1	377	3186
1	327	3187
1	289	3188
1	261	3189
1	238	3190
1	219	3191
1	198	3192
1	180	3193
1	163	3194
1	141	3195
1	128	3196
1	128	3197
1	128	3198
1	128	3199
1	211	3240
1	145	3241
1	128	3242
1	128	3243
1	128	3244
1	128	3245
1	128	3246
1	128	3247
1	128	3248
1	128	3249
1	128	3250
1	128	3251
1	128	3252
1	128	3253
1	128	3254
1	128	3255
1	128	3256
1	128	3257
1	128	3258
1	128	3259
1	201	3220
1	243	3221
1	280	3222
1	322	3223
1	361	3224
1	400	3225
1	439	3226
1	474	3227
1	500	3228
1	524	3229
1	534	3230
1	538	3231
1	537	3232
1	524	3233
1	502	3234
1	464	3235
1	420	3236
1	377	3237
1	322	3238
1	256	3239
1	128	3280
1	128	3281
1	128	3282
1	128	3283
1	128	3284
1	128	3285
1	128	3286
1	128	3287
1	128	3288
1	128	3289
1	128	3290
1	128	3291
1	128	3292
1	128	3293
1	128	3294
1	128	3295
1	128	3296
1	128	3297
1	128	3298
1	128	3299
1	128	3260
1	128	3261
1	128	3262
1	128	3263
1	128	3264
1	128	3265
1	128	3266
1	128	3267
1	128	3268
1	128	3269
1	128	3270
1	128	3271
1	128	3272
1	128	3273
1	128	3274
1	128	3275
1	128	3276
1	128	3277
1	128	3278
1	128	3279
1	128	3300
1	128	3301
1	128	3302
1	128	3303
1	128	3304
1	128	3305
1	128	3306
1	128	3307
1	128	3308
1	128	3309
1	128	3310
1	128	3311
1	128	3312
1	128	3313
1	128	3314
1	128	3315
1	128	3316
1	128	3317
1	128	3318
1	128	3319
1	128	3320
1	128	3321
1	128	3322
1	128	3323
1	128	3324
1	128	3325
1	128	3326
1	128	3327
1	128	3328
1	128	3329
1	128	3330
1	128	3331
1	128	3332
1	128	3333
1	128	3334
1	128	3335
1	128	3336
1	128	3337
1	128	3338
1	128	3339
1	128	3340
1	128	3341
1	128	3342
1	128	3343
1	128	3344
1	128	3345
1	128	3346
1	128	3347
1	128	3348
1	128	3349
1	128	3350
1	128	3351
1	128	3352
1	128	3353
1	128	3354
1	128	3355
1	128	3356
1	128	3357
1	128	3358
1	128	3359
1	128	3360
1	128	3361
1	128	3362
1	128	3363
1	128	3364
1	128	3365
1	128	3366
1	128	3367
1	128	3368
1	128	3369
1	128	3370
1	128	3371
1	128	3372
1	128	3373
1	128	3374
1	128	3375
1	128	3376
1	128	3377
1	128	3378
1	128	3379
1	128	3400
1	128	3401
1	128	3402
1	128	3403
1	128	3404
1	128	3405
1	128	3406
1	128	3407
1	128	3408
1	128	3409
1	128	3410
1	128	3411
1	128	3412
1	128	3413
1	128	3414
1	128	3415
1	128	3416
1	128	3417
1	128	3418
1	128	3419
1	128	3400
1	128	3401
1	128	3402
1	128	3403
1	128	3404
1	128	3405
1	128	3406
1	128	3407
1	128	3408
1	128	3409
1	128	3410
1	128	3411
1	128	3412
1	128	3413
1	128	3414
1	128	3415
1	128	3416
1	128	3417
1	128	3418
1	128	3419
1	128	3420
1	128	3421
1	128	3422
1	128	3423
1	128	3424
1	128	3425
1	128	3426
1	128	3427
1	128	3428
1	128	3429
1	128	3430
1	128	3431
1	128	3432
1	128	3433
1	128	3434
1	128	3435
1	128	3436
1	128	3437
1	128	3438
1	128	3439
1	128	3440
1	128	3441
1	128	3442
1	128	3443
1	128	3444
1	128	3445
1	128	3446
1	128	3447
1	128	3448
1	128	3449
1	128	3450
1	128	3451
1	128	3452
1	128	3453
1	128	3454
1	128	3455
1	128	3456
1	128	3457
1	128	3458
1	128	3459
1	128	3460
1	128	3461
1	128	3462
1	128	3463
1	128	3464
1	128	3465
1	132	3466
1	144	3467
1	158	3468
1	163	3469
1	163	3470
1	154	3471
1	141	3472
1	128	3473
1	128	3474
1	128	3475
1	128	3476
1	128	3477
1	128	3478
1	135	3479
1	151	3480
1	166	3481
1	175	3482
1	183	3483
1	188	3484
1	193	3485
1	200	3486
1	212	3487
1	219	3488
1	216	3489
1	212	3490
1	216	3491
1	224	3492
1	237	3493
1	240	3494
1	235	3495
1	233	3496
1	226	3497
1	216	3498
1	196	3499
1	180	3500
1	166	3501
1	148	3502
1	135	3503
1	128	3504
1	128	3505
1	128	3506
1	128	3507
1	128	3508
1	128	3509
1	128	3510
1	128	3511
1	128	3512
1	128	3513
1	128	3514
1	128	3515
1	128	3516
1	128	3517
1	128	3518
1	128	3519
1	128	3520
1	128	3521
1	128	3522
1	128	3523
1	128	3524
1	139	3525
1	157	3526
1	176	3527
1	192	3528
1	205	3529
1	220	3530
1	233	3531
1	244	3532
1	249	3533
1	250	3534
1	246	3535
1	230	3536
1	204	3537
1	180	3538
1	158	3539
1	149	3540
1	141	3541
1	143	3542
1	155	3543
1	175	3544
1	198	3545
1	225	3546
1	241	3547
1	245	3548
1	247	3549
1	258	3550
1	272	3551
1	287	3552
1	304	3553
1	317	3554
1	324	3555
1	329	3556
1	324	3557
1	308	3558
1	289	3559
1	272	3560
1	255	3561
1	245	3562
1	246	3563
1	261	3564
1	281	3565
1	301	3566
1	324	3567
1	348	3568
1	369	3569
1	389	3570
1	407	3571
1	424	3572
1	438	3573
1	450	3574
1	453	3575
1	452	3576
1	444	3577
1	438	3578
1	433	3579
1	425	3580
1	410	3581
1	397	3582
1	387	3583
1	381	3584
1	382	3585
1	393	3586
1	415	3587
1	442	3588
1	471	3589
1	493	3590
1	508	3591
1	525	3592
1	536	3593
1	558	3594
1	566	3595
1	575	3596
1	580	3597
1	581	3598
1	575	3599
1	571	3600
1	562	3601
1	556	3602
1	544	3603
1	553	3604
1	566	3605
1	585	3606
1	589	3607
1	597	3608
1	600	3609
1	602	3610
1	603	3611
1	607	3612
1	612	3613
1	624	3614
1	635	3615
1	639	3616
1	643	3617
1	648	3618
1	646	3619
1	652	3620
1	662	3621
1	667	3622
1	669	3623
1	678	3624
1	688	3625
1	697	3626
1	703	3627
1	701	3628
1	697	3629
1	695	3630
1	702	3631
1	708	3632
1	717	3633
1	720	3634
1	723	3635
1	729	3636
1	735	3637
1	743	3638
1	760	3639
1	780	3640
1	806	3641
1	833	3642
1	849	3643
1	867	3644
1	875	3645
1	873	3646
1	860	3647
1	848	3648
1	839	3649
1	837	3650
1	839	3651
1	843	3652
1	851	3653
1	859	3654
1	865	3655
1	869	3656
1	865	3657
1	857	3658
1	844	3659
1	824	3660
1	807	3661
1	795	3662
1	794	3663
1	798	3664
1	810	3665
1	826	3666
1	848	3667
1	873	3668
1	906	3669
1	932	3670
1	964	3671
1	997	3672
1	1018	3673
1	1041	3674
1	1069	3675
1	1084	3676
1	1096	3677
1	1109	3678
1	1114	3679
1	1122	3680
1	1124	3681
1	1119	3682
1	1107	3683
1	1093	3684
1	1084	3685
1	1080	3686
1	1076	3687
1	1076	3688
1	1070	3689
1	1060	3690
1	1052	3691
1	1040	3692
1	1022	3693
1	1008	3694
1	1013	3695
1	1028	3696
1	1048	3697
1	1067	3698
1	1089	3699
1	1115	3700
1	1142	3701
1	1164	3702
1	1184	3703
1	1206	3704
1	1233	3705
1	1266	3706
1	1293	3707
1	1322	3708
1	1338	3709
1	1343	3710
1	1342	3711
1	1332	3712
1	1319	3713
1	1302	3714
1	1279	3715
1	1256	3716
1	1233	3717
1	1220	3718
1	1219	3719
1	1364	3740
1	1345	3741
1	1337	3742
1	1337	3743
1	1346	3744
1	1358	3745
1	1373	3746
1	1393	3747
1	1416	3748
1	1431	3749
1	1441	3750
1	1443	3751
1	1439	3752
1	1434	3753
1	1419	3754
1	1413	3755
1	1411	3756
1	1413	3757
1	1424	3758
1	1437	3759
1	1227	3720
1	1241	3721
1	1260	3722
1	1274	3723
1	1279	3724
1	1284	3725
1	1297	3726
1	1319	3727
1	1346	3728
1	1384	3729
1	1412	3730
1	1428	3731
1	1438	3732
1	1445	3733
1	1442	3734
1	1438	3735
1	1437	3736
1	1427	3737
1	1412	3738
1	1380	3739
1	1450	3760
1	1467	3761
1	1484	3762
1	1503	3763
1	1518	3764
1	1529	3765
1	1542	3766
1	1557	3767
1	1581	3768
1	1603	3769
1	1620	3770
1	1632	3771
1	1625	3772
1	1603	3773
1	1589	3774
1	1573	3775
1	1561	3776
1	1556	3777
1	1554	3778
1	1545	3779
1	1529	3780
1	1517	3781
1	1503	3782
1	1489	3783
1	1463	3784
1	1445	3785
1	1428	3786
1	1424	3787
1	1426	3788
1	1445	3789
1	1462	3790
1	1484	3791
1	1503	3792
1	1526	3793
1	1541	3794
1	1553	3795
1	1556	3796
1	1560	3797
1	1564	3798
1	1560	3799
1	1555	3800
1	1548	3801
1	1546	3802
1	1545	3803
1	1550	3804
1	1549	3805
1	1548	3806
1	1547	3807
1	1554	3808
1	1561	3809
1	1572	3810
1	1581	3811
1	1587	3812
1	1594	3813
1	1595	3814
1	1598	3815
1	1603	3816
1	1604	3817
1	1602	3818
1	1607	3819
1	1606	3820
1	1606	3821
1	1607	3822
1	1608	3823
1	1612	3824
1	1621	3825
1	1629	3826
1	1628	3827
1	1622	3828
1	1611	3829
1	1604	3830
1	1594	3831
1	1592	3832
1	1592	3833
1	1594	3834
1	1593	3835
1	1584	3836
1	1570	3837
1	1553	3838
1	1528	3839
1	1518	3840
1	1517	3841
1	1525	3842
1	1533	3843
1	1551	3844
1	1567	3845
1	1584	3846
1	1599	3847
1	1612	3848
1	1623	3849
1	1633	3850
1	1636	3851
1	1639	3852
1	1643	3853
1	1636	3854
1	1626	3855
1	1607	3856
1	1593	3857
1	1577	3858
1	1544	3859
1	1526	3860
1	1507	3861
1	1497	3862
1	1492	3863
1	1503	3864
1	1508	3865
1	1522	3866
1	1531	3867
1	1543	3868
1	1559	3869
1	1584	3870
1	1609	3871
1	1632	3872
1	1639	3873
1	1636	3874
1	1632	3875
1	1623	3876
1	1610	3877
1	1596	3878
1	1584	3879
1	1574	3900
1	1569	3901
1	1575	3902
1	1582	3903
1	1593	3904
1	1598	3905
1	1605	3906
1	1612	3907
1	1626	3908
1	1634	3909
1	1642	3910
1	1647	3911
1	1644	3912
1	1634	3913
1	1625	3914
1	1606	3915
1	1589	3916
1	1579	3917
1	1570	3918
1	1568	3919
1	1568	3900
1	1569	3901
1	1574	3902
1	1580	3903
1	1580	3904
1	1586	3905
1	1600	3906
1	1611	3907
1	1625	3908
1	1636	3909
1	1638	3910
1	1636	3911
1	1635	3912
1	1636	3913
1	1638	3914
1	1636	3915
1	1632	3916
1	1621	3917
1	1607	3918
1	1590	3919
1	1579	3920
1	1567	3921
1	1558	3922
1	1555	3923
1	1557	3924
1	1559	3925
1	1571	3926
1	1589	3927
1	1607	3928
1	1627	3929
1	1649	3930
1	1671	3931
1	1690	3932
1	1701	3933
1	1701	3934
1	1700	3935
1	1693	3936
1	1683	3937
1	1667	3938
1	1657	3939
1	1634	3940
1	1615	3941
1	1594	3942
1	1572	3943
1	1564	3944
1	1548	3945
1	1539	3946
1	1534	3947
1	1531	3948
1	1535	3949
1	1553	3950
1	1575	3951
1	1603	3952
1	1632	3953
1	1657	3954
1	1677	3955
1	1690	3956
1	1701	3957
1	1713	3958
1	1718	3959
1	1716	3960
1	1715	3961
1	1710	3962
1	1708	3963
1	1705	3964
1	1710	3965
1	1717	3966
1	1729	3967
1	1738	3968
1	1746	3969
1	1742	3970
1	1730	3971
1	1711	3972
1	1697	3973
1	1687	3974
1	1681	3975
1	1675	3976
1	1669	3977
1	1661	3978
1	1646	3979
1	1634	3980
1	1629	3981
1	1629	3982
1	1634	3983
1	1654	3984
1	1667	3985
1	1679	3986
1	1684	3987
1	1680	3988
1	1669	3989
1	1651	3990
1	1634	3991
1	1620	3992
1	1610	3993
1	1600	3994
1	1593	3995
1	1582	3996
1	1572	3997
1	1566	3998
1	1568	3999
1	1569	4000
1	1573	4001
1	1584	4002
1	1600	4003
1	1620	4004
1	1634	4005
1	1639	4006
1	1651	4006
1	1649	4008
1	1636	4009
1	1629	4010
1	1625	4011
1	1611	4012
1	1605	4013
1	1607	4014
1	1611	4014
1	1626	4016
1	1647	4017
1	1670	4018
1	1692	4019
1	1711	4020
1	1723	4021
1	1731	4022
1	1733	4022
1	1729	4024
1	1728	4025
1	1736	4026
1	1739	4027
1	1742	4028
1	1746	4029
1	1743	4030
1	1742	4030
1	1737	4032
1	1733	4033
1	1723	4034
1	1710	4035
1	1688	4036
1	1670	4037
1	1652	4038
1	1635	4038
1	1633	4040
1	1636	4041
1	1648	4042
1	1668	4043
1	1686	4044
1	1700	4045
1	1712	4046
1	1720	4046
1	1736	4048
1	1737	4049
1	1733	4050
1	1722	4051
1	1712	4052
1	1701	4053
1	1683	4054
1	1671	4054
1	1654	4056
1	1633	4057
1	1608	4058
1	1603	4059
1	2183	4080
1	2205	4081
1	2237	4082
1	2280	4083
1	2323	4084
1	2364	4085
1	2406	4086
1	2451	4086
1	2493	4088
1	2523	4089
1	2535	4090
1	2526	4091
1	2514	4092
1	2493	4093
1	2462	4094
1	2417	4094
1	2357	4096
1	2289	4097
1	2215	4098
1	2138	4099
1	1604	4060
1	1615	4061
1	1632	4062
1	1652	4062
1	1679	4064
1	1712	4065
1	1750	4066
1	1790	4067
1	1837	4068
1	1885	4069
1	1922	4070
1	1963	4070
1	2000	4072
1	2032	4073
1	2066	4074
1	2083	4075
1	2106	4076
1	2129	4077
1	2145	4078
1	2162	4078
1	2086	4100
1	2039	4101
1	1989	4102
1	1935	4103
1	1895	4104
1	1862	4105
1	1832	4106
1	1800	4107
1	1770	4108
1	1744	4109
1	1722	4110
1	1715	4111
1	1719	4112
1	1733	4113
1	1750	4114
1	1769	4115
1	1791	4116
1	1814	4117
1	1827	4118
1	1839	4119
1	1842	4120
1	1843	4121
1	1832	4122
1	1814	4123
1	1792	4124
1	1785	4125
1	1777	4126
1	1769	4127
1	1756	4128
1	1737	4129
1	1716	4130
1	1696	4131
1	1674	4132
1	1663	4133
1	1669	4134
1	1679	4135
1	1703	4136
1	1731	4137
1	1759	4138
1	1782	4139
1	1796	4140
1	1819	4141
1	1841	4142
1	1856	4143
1	1862	4144
1	1859	4145
1	1863	4146
1	1867	4147
1	1863	4148
1	1857	4149
1	1849	4150
1	1844	4151
1	1842	4152
1	1841	4153
1	1832	4154
1	1821	4155
1	1809	4156
1	1782	4157
1	1764	4158
1	1751	4159
1	1900	4180
1	1895	4181
1	1895	4182
1	1895	4183
1	1893	4184
1	1881	4185
1	1867	4186
1	1854	4187
1	1837	4188
1	1818	4189
1	1813	4190
1	1812	4191
1	1822	4192
1	1832	4193
1	1836	4194
1	1822	4195
1	1809	4196
1	1792	4197
1	1787	4198
1	1776	4199
1	1764	4200
1	1749	4201
1	1731	4202
1	1710	4203
1	1687	4204
1	1686	4205
1	1698	4206
1	1726	4207
1	1762	4208
1	1809	4209
1	1845	4210
1	1869	4211
1	1877	4212
1	1881	4213
1	1873	4214
1	1868	4215
1	1878	4216
1	1887	4217
1	1895	4218
1	1904	4219
1	1751	4160
1	1760	4161
1	1780	4162
1	1808	4163
1	1838	4164
1	1854	4165
1	1869	4166
1	1880	4167
1	1886	4168
1	1888	4169
1	1886	4170
1	1887	4171
1	1893	4172
1	1895	4173
1	1894	4174
1	1893	4175
1	1890	4176
1	1888	4177
1	1890	4178
1	1899	4179
1	1922	4240
1	1923	4241
1	1922	4242
1	1916	4243
1	1908	4244
1	1904	4245
1	1908	4246
1	1922	4247
1	1944	4248
1	1964	4249
1	1985	4250
1	2003	4251
1	2031	4252
1	2066	4253
1	2094	4254
1	2116	4255
1	2129	4256
1	2138	4257
1	2138	4258
1	2120	4259
1	1911	4220
1	1921	4221
1	1926	4222
1	1934	4223
1	1949	4224
1	1953	4225
1	1949	4226
1	1942	4227
1	1923	4228
1	1904	4229
1	1883	4230
1	1870	4231
1	1867	4232
1	1858	4233
1	1848	4234
1	1855	4235
1	1871	4236
1	1889	4237
1	1896	4238
1	1911	4239
1	2096	4260
1	2067	4261
1	2047	4262
1	2030	4263
1	2016	4264
1	2013	4265
1	2015	4266
1	2021	4267
1	2032	4268
1	2052	4269
1	2057	4270
1	2069	4271
1	2086	4272
1	2107	4273
1	2131	4274
1	2154	4275
1	2170	4276
1	2183	4277
1	2188	4278
1	2178	4279
1	2165	4280
1	2152	4281
1	2137	4282
1	2127	4283
1	2127	4284
1	2120	4285
1	2123	4286
1	2129	4287
1	2130	4288
1	2125	4289
1	2118	4290
1	2113	4291
1	2104	4292
1	2100	4293
1	2088	4294
1	2087	4295
1	2094	4296
1	2105	4297
1	2105	4298
1	2108	4299
1	2106	4300
1	2107	4301
1	2117	4302
1	2131	4303
1	2156	4304
1	2171	4305
1	2183	4306
1	2189	4307
1	2205	4308
1	2208	4309
1	2210	4310
1	2218	4311
1	2210	4312
1	2190	4313
1	2179	4314
1	2152	4315
1	2129	4316
1	2119	4317
1	2115	4318
1	2114	4319
1	2070	4340
1	2079	4341
1	2091	4342
1	2097	4343
1	2092	4344
1	2082	4345
1	2078	4346
1	2073	4347
1	2075	4348
1	2066	4349
1	2062	4350
1	2057	4351
1	2052	4352
1	2048	4353
1	2040	4354
1	2035	4355
1	2014	4356
1	1984	4357
1	1960	4358
1	1951	4359
1	2112	4320
1	2117	4321
1	2133	4322
1	2157	4323
1	2179	4324
1	2198	4325
1	2212	4326
1	2220	4327
1	2214	4328
1	2209	4329
1	2192	4330
1	2170	4331
1	2135	4332
1	2106	4333
1	2084	4334
1	2066	4335
1	2052	4336
1	2040	4337
1	2043	4338
1	2053	4339
1	1937	4360
1	1930	4361
1	1932	4362
1	1936	4363
1	1945	4364
1	1953	4365
1	1962	4366
1	1969	4367
1	1973	4368
1	1970	4369
1	1974	4370
1	1974	4371
1	1975	4372
1	1976	4373
1	1985	4374
1	1976	4375
1	1968	4376
1	1957	4377
1	1950	4378
1	1948	4379
1	1942	4380
1	1934	4381
1	1931	4382
1	1922	4383
1	1907	4384
1	1896	4385
1	1896	4386
1	1903	4387
1	1913	4388
1	1929	4389
1	1935	4390
1	1929	4391
1	1922	4392
1	1913	4393
1	1907	4394
1	1899	4395
1	1886	4396
1	1874	4397
1	1857	4398
1	1834	4399
1	1814	4400
1	1795	4401
1	1791	4402
1	1791	4403
1	1802	4404
1	1809	4405
1	1822	4406
1	1841	4407
1	1864	4408
1	1880	4409
1	1886	4410
1	1881	4411
1	1868	4412
1	1849	4413
1	1819	4414
1	1791	4415
1	1769	4416
1	1751	4417
1	1730	4418
1	1718	4419
1	1710	4420
1	1706	4421
1	1704	4422
1	1707	4423
1	1710	4424
1	1711	4425
1	1712	4426
1	1715	4427
1	1722	4428
1	1717	4429
1	1716	4430
1	1712	4431
1	1712	4432
1	1713	4433
1	1726	4434
1	1729	4435
1	1737	4436
1	1741	4437
1	1747	4438
1	1742	4439
1	1740	4440
1	1738	4441
1	1738	4442
1	1739	4443
1	1738	4444
1	1739	4445
1	1739	4446
1	1739	4447
1	1742	4448
1	1746	4449
1	1751	4450
1	1743	4451
1	1738	4452
1	1736	4453
1	1724	4454
1	1712	4455
1	1703	4456
1	1700	4457
1	1698	4458
1	1695	4459
1	1700	4460
1	1698	4461
1	1695	4462
1	1688	4463
1	1693	4464
1	1686	4465
1	1686	4466
1	1690	4467
1	1698	4468
1	1704	4469
1	1708	4470
1	1711	4471
1	1712	4472
1	1713	4473
1	1711	4474
1	1713	4475
1	1720	4476
1	1722	4477
1	1720	4478
1	1724	4479
1	1817	4500
1	1824	4501
1	1826	4502
1	1821	4503
1	1809	4504
1	1796	4505
1	1788	4506
1	1773	4507
1	1761	4508
1	1754	4509
1	1746	4510
1	1739	4511
1	1739	4512
1	1744	4513
1	1751	4514
1	1764	4515
1	1778	4516
1	1791	4517
1	1809	4518
1	1816	4519
1	1724	4480
1	1724	4481
1	1727	4482
1	1731	4483
1	1738	4484
1	1743	4485
1	1750	4486
1	1754	4487
1	1759	4488
1	1757	4489
1	1756	4490
1	1751	4491
1	1746	4492
1	1742	4493
1	1750	4494
1	1757	4495
1	1769	4496
1	1781	4497
1	1791	4498
1	1803	4499
1	1817	4520
1	1822	4521
1	1827	4522
1	1839	4523
1	1854	4524
1	1861	4525
1	1869	4526
1	1879	4527
1	1888	4528
1	1895	4529
1	1893	4530
1	1884	4531
1	1869	4532
1	1847	4533
1	1824	4534
1	1801	4535
1	1785	4536
1	1768	4537
1	1755	4538
1	1759	4539
1	1762	4540
1	1769	4541
1	1782	4542
1	1789	4543
1	1803	4544
1	1819	4545
1	1834	4546
1	1846	4547
1	1859	4548
1	1873	4549
1	1885	4550
1	1890	4551
1	1895	4552
1	1897	4553
1	1904	4554
1	1906	4555
1	1901	4556
1	1895	4557
1	1899	4558
1	1895	4559
1	1886	4560
1	1870	4561
1	1854	4562
1	1843	4563
1	1829	4564
1	1827	4565
1	1827	4566
1	1836	4567
1	1854	4568
1	1878	4569
1	1901	4570
1	1917	4571
1	1931	4572
1	1940	4573
1	1944	4574
1	1939	4575
1	1929	4576
1	1919	4577
1	1901	4578
1	1885	4579
1	1881	4580
1	1886	4581
1	1900	4582
1	1920	4583
1	1943	4584
1	1957	4585
1	1970	4586
1	1982	4587
1	1993	4588
1	1996	4589
1	1994	4590
1	1982	4591
1	1963	4592
1	1944	4593
1	1922	4594
1	1909	4595
1	1906	4596
1	1906	4597
1	1909	4598
1	1922	4599
1	1937	4600
1	1951	4601
1	1969	4602
1	1986	4603
1	2000	4604
1	2008	4605
1	2025	4606
1	2034	4607
1	2047	4608
1	2048	4609
1	2052	4610
1	2045	4611
1	2037	4612
1	2029	4613
1	2025	4614
1	2004	4615
1	1975	4616
1	1948	4617
1	1917	4618
1	1895	4619
1	1880	4620
1	1882	4621
1	1896	4622
1	1920	4623
1	1944	4624
1	1974	4625
1	2003	4626
1	2034	4627
1	2061	4628
1	2083	4629
1	2089	4630
1	2089	4631
1	2084	4632
1	2078	4633
1	2066	4634
1	2052	4635
1	2040	4636
1	2030	4637
1	2017	4638
1	1998	4639
1	1977	4640
1	1962	4641
1	1950	4642
1	1948	4643
1	1949	4644
1	1962	4645
1	1985	4646
1	2011	4647
1	2047	4648
1	2067	4649
1	2084	4650
1	2105	4651
1	2120	4652
1	2131	4653
1	2133	4654
1	2136	4655
1	2132	4656
1	2127	4657
1	2115	4658
1	2113	4659
1	2103	4660
1	2091	4661
1	2081	4662
1	2079	4663
1	2079	4664
1	2083	4665
1	2093	4666
1	2106	4667
1	2118	4668
1	2122	4669
1	2132	4670
1	2140	4671
1	2150	4672
1	2161	4673
1	2183	4674
1	2192	4675
1	2188	4676
1	2170	4677
1	2144	4678
1	2114	4679
1	2084	4680
1	2066	4681
1	2052	4682
1	2040	4683
1	2026	4684
1	2021	4685
1	2019	4686
1	2019	4687
1	2025	4688
1	2038	4689
1	2048	4690
1	2057	4691
1	2076	4692
1	2101	4693
1	2124	4694
1	2145	4695
1	2165	4696
1	2183	4697
1	2210	4698
1	2222	4699
1	2237	4700
1	2246	4701
1	2251	4702
1	2251	4703
1	2254	4704
1	2244	4705
1	2237	4706
1	2231	4707
1	2214	4708
1	2197	4709
1	2182	4710
1	2169	4711
1	2161	4712
1	2157	4713
1	2142	4714
1	2132	4715
1	2124	4716
1	2106	4717
1	2088	4718
1	2070	4719
1	2048	4720
1	2038	4721
1	2037	4722
1	2049	4723
1	2063	4724
1	2079	4725
1	2101	4726
1	2126	4727
1	2155	4728
1	2172	4729
1	2191	4730
1	2204	4731
1	2210	4732
1	2210	4733
1	2221	4734
1	2230	4735
1	2236	4736
1	2237	4737
1	2237	4738
1	2222	4739
1	2215	4740
1	2210	4741
1	2206	4742
1	2206	4743
1	2207	4744
1	2207	4745
1	2201	4746
1	2187	4747
1	2173	4748
1	2159	4749
1	2148	4750
1	2126	4751
1	2117	4752
1	2117	4753
1	2110	4754
1	2103	4755
1	2097	4756
1	2094	4757
1	2097	4758
1	2091	4759
1	2093	4760
1	2105	4761
1	2112	4762
1	2113	4763
1	2118	4764
1	2117	4765
1	2114	4766
1	2111	4767
1	2111	4768
1	2115	4769
1	2114	4770
1	2114	4771
1	2118	4772
1	2131	4773
1	2137	4774
1	2147	4775
1	2148	4776
1	2145	4777
1	2140	4778
1	2141	4779
1	2141	4800
1	2142	4801
1	2140	4802
1	2146	4803
1	2157	4804
1	2174	4805
1	2194	4806
1	2210	4807
1	2228	4808
1	2236	4809
1	2242	4810
1	2248	4811
1	2246	4812
1	2237	4813
1	2235	4814
1	2219	4815
1	2199	4816
1	2181	4817
1	2166	4818
1	2159	4819
1	2158	4800
1	2159	4801
1	2167	4802
1	2179	4803
1	2186	4804
1	2201	4805
1	2210	4806
1	2215	4807
1	2222	4808
1	2237	4809
1	2246	4810
1	2246	4811
1	2245	4812
1	2240	4813
1	2233	4814
1	2210	4815
1	2184	4816
1	2165	4817
1	2140	4818
1	2109	4819
1	2105	4840
1	2064	4841
1	2025	4842
1	1998	4843
1	1974	4844
1	1956	4845
1	1961	4846
1	1971	4847
1	1985	4848
1	2009	4849
1	2034	4850
1	2061	4851
1	2080	4852
1	2094	4853
1	2099	4854
1	2106	4855
1	2097	4856
1	2099	4857
1	2106	4858
1	2102	4859
1	2091	4820
1	2079	4821
1	2078	4822
1	2082	4823
1	2101	4824
1	2115	4825
1	2135	4826
1	2162	4827
1	2193	4828
1	2222	4829
1	2257	4830
1	2275	4831
1	2288	4832
1	2301	4833
1	2299	4834
1	2293	4835
1	2273	4836
1	2235	4837
1	2185	4838
1	2154	4839
1	1909	4880
1	1932	4881
1	1955	4882
1	1981	4883
1	2013	4884
1	2038	4885
1	2058	4886
1	2071	4887
1	2079	4888
1	2084	4889
1	2084	4890
1	2084	4891
1	2087	4892
1	2081	4893
1	2066	4894
1	2053	4895
1	2038	4896
1	2019	4897
1	1998	4898
1	1985	4899
1	2087	4860
1	2075	4861
1	2057	4862
1	2047	4863
1	2026	4864
1	2022	4865
1	2022	4866
1	2017	4867
1	2012	4868
1	2005	4869
1	1991	4870
1	1973	4871
1	1951	4872
1	1931	4873
1	1914	4874
1	1904	4875
1	1895	4876
1	1890	4877
1	1890	4878
1	1895	4879
1	1971	4900
1	1950	4901
1	1937	4902
1	1926	4903
1	1925	4904
1	1931	4905
1	1935	4906
1	1935	4907
1	1934	4908
1	1922	4909
1	1918	4910
1	1913	4911
1	1909	4912
1	1910	4913
1	1923	4914
1	1935	4915
1	1943	4916
1	1953	4917
1	1969	4918
1	1985	4919
1	1999	4920
1	2005	4921
1	2016	4922
1	2031	4923
1	2042	4924
1	2057	4925
1	2078	4926
1	2104	4927
1	2137	4928
1	2182	4929
1	2220	4930
1	2265	4931
1	2309	4932
1	2348	4933
1	2381	4934
1	2414	4935
1	2446	4936
1	2484	4937
1	2512	4938
1	2531	4939
1	2571	4940
1	2611	4941
1	2655	4942
1	2685	4943
1	2700	4944
1	2702	4945
1	2687	4946
1	2664	4947
1	2626	4948
1	2574	4949
1	2521	4950
1	2460	4951
1	2381	4952
1	2300	4953
1	2215	4954
1	2133	4955
1	2055	4956
1	1980	4957
1	1913	4958
1	1847	4959
1	1795	4960
1	1760	4961
1	1736	4962
1	1726	4963
1	1731	4964
1	1750	4965
1	1770	4966
1	1790	4967
1	1803	4968
1	1813	4969
1	1822	4970
1	1832	4971
1	1839	4972
1	1839	4973
1	1842	4974
1	1830	4975
1	1817	4976
1	1797	4977
1	1785	4978
1	1773	4979
1	1764	4980
1	1764	4981
1	1772	4982
1	1788	4983
1	1799	4984
1	1825	4985
1	1850	4986
1	1880	4987
1	1896	4988
1	1913	4989
1	1917	4990
1	1917	4991
1	1916	4992
1	1912	4993
1	1908	4994
1	1896	4995
1	1877	4996
1	1852	4997
1	1826	4998
1	1795	4999
1	1780	5000
1	1764	5001
1	1751	5002
1	1742	5003
1	1740	5004
1	1742	5005
1	1749	5006
1	1760	5007
1	1769	5008
1	1776	5009
1	1777	5010
1	1773	5011
1	1767	5012
1	1760	5013
1	1742	5014
1	1738	5015
1	1738	5016
1	1738	5017
1	1740	5018
1	1750	5019
1	1772	5040
1	1764	5041
1	1762	5042
1	1764	5043
1	1765	5044
1	1769	5045
1	1773	5046
1	1774	5047
1	1767	5048
1	1760	5049
1	1744	5050
1	1723	5051
1	1706	5052
1	1697	5053
1	1691	5054
1	1687	5055
1	1686	5056
1	1692	5057
1	1712	5058
1	1738	5059
1	1749	5020
1	1755	5021
1	1764	5022
1	1764	5023
1	1764	5024
1	1764	5025
1	1766	5026
1	1773	5027
1	1783	5028
1	1787	5029
1	1795	5030
1	1813	5031
1	1818	5032
1	1821	5033
1	1825	5034
1	1819	5035
1	1818	5036
1	1817	5037
1	1809	5038
1	1786	5039
1	1768	5100
1	1764	5101
1	1765	5102
1	1777	5103
1	1783	5104
1	1798	5105
1	1817	5106
1	1839	5107
1	1857	5108
1	1883	5109
1	1900	5110
1	1916	5111
1	1927	5112
1	1935	5113
1	1937	5114
1	1936	5115
1	1923	5116
1	1908	5117
1	1886	5118
1	1852	5119
1	1777	5080
1	1780	5081
1	1785	5082
1	1788	5083
1	1783	5084
1	1780	5085
1	1775	5086
1	1769	5087
1	1767	5088
1	1764	5089
1	1769	5090
1	1777	5091
1	1782	5092
1	1791	5093
1	1812	5094
1	1817	5095
1	1818	5096
1	1816	5097
1	1796	5098
1	1782	5099
1	1765	5060
1	1793	5061
1	1825	5062
1	1855	5063
1	1891	5064
1	1912	5065
1	1928	5066
1	1944	5067
1	1958	5068
1	1971	5069
1	1974	5070
1	1969	5071
1	1958	5072
1	1937	5073
1	1901	5074
1	1872	5075
1	1848	5076
1	1818	5077
1	1791	5078
1	1785	5079
1	1818	5120
1	1789	5121
1	1764	5122
1	1752	5123
1	1756	5124
1	1757	5125
1	1764	5126
1	1767	5127
1	1772	5128
1	1783	5129
1	1800	5130
1	1823	5131
1	1844	5132
1	1861	5133
1	1868	5134
1	1875	5135
1	1890	5136
1	1899	5137
1	1911	5138
1	1930	5139
1	1940	5140
1	1939	5141
1	1931	5142
1	1934	5143
1	1939	5144
1	1945	5145
1	1958	5146
1	1972	5147
1	1985	5148
1	1990	5149
1	1988	5150
1	1971	5151
1	1948	5152
1	1922	5153
1	1896	5154
1	1872	5155
1	1856	5156
1	1850	5157
1	1860	5158
1	1869	5159
1	1875	5160
1	1887	5161
1	1897	5162
1	1904	5163
1	1904	5164
1	1909	5165
1	1921	5166
1	1922	5167
1	1919	5168
1	1916	5169
1	1906	5170
1	1892	5171
1	1881	5172
1	1870	5173
1	1860	5174
1	1855	5175
1	1848	5176
1	1843	5177
1	1834	5178
1	1817	5179
1	1751	5200
1	1716	5201
1	1686	5202
1	1662	5203
1	1649	5204
1	1649	5205
1	1654	5206
1	1661	5207
1	1674	5208
1	1680	5209
1	1686	5210
1	1690	5211
1	1687	5212
1	1676	5213
1	1676	5214
1	1676	5215
1	1680	5216
1	1679	5217
1	1677	5218
1	1676	5219
1	1800	5180
1	1791	5181
1	1789	5182
1	1787	5183
1	1792	5184
1	1800	5185
1	1817	5186
1	1830	5187
1	1844	5188
1	1859	5189
1	1870	5190
1	1886	5191
1	1898	5192
1	1906	5193
1	1898	5194
1	1895	5195
1	1879	5196
1	1852	5197
1	1817	5198
1	1786	5199
1	1677	5220
1	1676	5221
1	1680	5222
1	1686	5223
1	1688	5224
1	1692	5225
1	1690	5226
1	1686	5227
1	1679	5228
1	1674	5229
1	1660	5230
1	1646	5231
1	1636	5232
1	1631	5233
1	1612	5234
1	1595	5235
1	1580	5236
1	1562	5237
1	1547	5238
1	1535	5239
1	1546	5260
1	1529	5261
1	1508	5262
1	1499	5263
1	1499	5264
1	1512	5265
1	1534	5266
1	1566	5267
1	1602	5268
1	1631	5269
1	1656	5270
1	1675	5271
1	1698	5272
1	1716	5273
1	1731	5274
1	1721	5275
1	1701	5276
1	1670	5277
1	1634	5278
1	1598	5279
1	1566	5280
1	1541	5281
1	1519	5282
1	1503	5283
1	1485	5284
1	1482	5285
1	1490	5286
1	1503	5287
1	1520	5288
1	1543	5289
1	1566	5290
1	1581	5291
1	1587	5292
1	1586	5293
1	1583	5294
1	1579	5295
1	1575	5296
1	1578	5297
1	1585	5298
1	1594	5299
1	1539	5240
1	1553	5241
1	1574	5242
1	1602	5243
1	1630	5244
1	1656	5245
1	1674	5246
1	1691	5247
1	1706	5248
1	1699	5249
1	1683	5250
1	1660	5251
1	1638	5252
1	1617	5253
1	1595	5254
1	1584	5255
1	1580	5256
1	1571	5257
1	1563	5258
1	1557	5259
1	1603	5300
1	1615	5301
1	1625	5302
1	1628	5303
1	1634	5304
1	1643	5305
1	1652	5306
1	1657	5307
1	1660	5308
1	1660	5309
1	1659	5310
1	1658	5311
1	1655	5312
1	1650	5313
1	1639	5314
1	1634	5315
1	1621	5316
1	1606	5317
1	1590	5318
1	1586	5319
1	1583	5320
1	1581	5321
1	1585	5322
1	1602	5323
1	1613	5324
1	1623	5325
1	1629	5326
1	1634	5327
1	1647	5328
1	1644	5329
1	1638	5330
1	1620	5331
1	1590	5332
1	1555	5333
1	1533	5334
1	1512	5335
1	1495	5336
1	1487	5337
1	1481	5338
1	1478	5339
1	1472	5340
1	1476	5341
1	1494	5342
1	1515	5343
1	1535	5344
1	1555	5345
1	1581	5346
1	1607	5347
1	1625	5348
1	1638	5349
1	1643	5350
1	1638	5351
1	1633	5352
1	1629	5353
1	1621	5354
1	1616	5355
1	1609	5356
1	1607	5357
1	1601	5358
1	1587	5359
1	1576	5360
1	1563	5361
1	1553	5362
1	1549	5363
1	1555	5364
1	1559	5365
1	1572	5366
1	1585	5367
1	1603	5368
1	1610	5369
1	1611	5370
1	1609	5371
1	1608	5372
1	1607	5373
1	1598	5374
1	1590	5375
1	1582	5376
1	1574	5377
1	1562	5378
1	1555	5379
1	1544	5380
1	1537	5381
1	1539	5382
1	1552	5383
1	1571	5384
1	1591	5385
1	1608	5386
1	1626	5387
1	1638	5388
1	1642	5389
1	1645	5390
1	1647	5391
1	1646	5392
1	1643	5393
1	1639	5394
1	1629	5395
1	1616	5396
1	1606	5397
1	1596	5398
1	1589	5399
1	1582	5400
1	1583	5401
1	1590	5402
1	1598	5403
1	1598	5404
1	1596	5405
1	1590	5406
1	1583	5407
1	1582	5408
1	1585	5409
1	1585	5410
1	1584	5411
1	1585	5412
1	1581	5413
1	1577	5414
1	1571	5415
1	1557	5416
1	1548	5417
1	1538	5418
1	1529	5419
1	1529	5420
1	1539	5421
1	1549	5422
1	1554	5423
1	1557	5424
1	1556	5425
1	1558	5426
1	1572	5427
1	1584	5428
1	1590	5429
1	1585	5430
1	1576	5431
1	1570	5432
1	1572	5433
1	1571	5434
1	1571	5435
1	1569	5436
1	1565	5437
1	1559	5438
1	1561	5439
1	1559	5440
1	1557	5441
1	1564	5442
1	1573	5443
1	1583	5444
1	1587	5445
1	1594	5446
1	1607	5447
1	1616	5448
1	1627	5449
1	1634	5450
1	1634	5451
1	1631	5452
1	1621	5453
1	1608	5454
1	1593	5455
1	1575	5456
1	1560	5457
1	1554	5458
1	1544	5459
1	1535	5460
1	1524	5461
1	1512	5462
1	1503	5463
1	1503	5464
1	1517	5465
1	1535	5466
1	1555	5467
1	1579	5468
1	1606	5469
1	1620	5470
1	1634	5471
1	1636	5472
1	1638	5473
1	1635	5474
1	1631	5475
1	1616	5476
1	1602	5477
1	1581	5478
1	1555	5479
1	1531	5480
1	1517	5481
1	1514	5482
1	1523	5483
1	1536	5484
1	1554	5485
1	1574	5486
1	1590	5487
1	1604	5488
1	1613	5489
1	1619	5490
1	1617	5491
1	1611	5492
1	1600	5493
1	1581	5494
1	1566	5495
1	1552	5496
1	1539	5497
1	1539	5498
1	1547	5499
1	1555	5500
1	1565	5501
1	1570	5502
1	1574	5503
1	1579	5504
1	1584	5505
1	1593	5506
1	1602	5507
1	1607	5508
1	1604	5509
1	1603	5510
1	1600	5511
1	1595	5512
1	1585	5513
1	1584	5514
1	1583	5515
1	1581	5516
1	1581	5517
1	1580	5518
1	1569	5519
1	1534	5540
1	1545	5541
1	1565	5542
1	1584	5543
1	1600	5544
1	1607	5545
1	1607	5546
1	1608	5547
1	1610	5548
1	1606	5549
1	1592	5550
1	1581	5551
1	1566	5552
1	1555	5553
1	1546	5554
1	1536	5555
1	1529	5556
1	1529	5557
1	1532	5558
1	1553	5559
1	1564	5520
1	1560	5521
1	1560	5522
1	1559	5523
1	1555	5524
1	1562	5525
1	1572	5526
1	1584	5527
1	1597	5528
1	1615	5529
1	1626	5530
1	1633	5531
1	1628	5532
1	1613	5533
1	1602	5534
1	1583	5535
1	1568	5536
1	1554	5537
1	1544	5538
1	1530	5539
1	1567	5560
1	1581	5561
1	1589	5562
1	1594	5563
1	1595	5564
1	1596	5565
1	1597	5566
1	1597	5567
1	1599	5568
1	1596	5569
1	1593	5570
1	1587	5571
1	1579	5572
1	1570	5573
1	1570	5574
1	1573	5575
1	1581	5576
1	1587	5577
1	1581	5578
1	1569	5579
1	1556	5580
1	1550	5581
1	1543	5582
1	1543	5583
1	1542	5584
1	1553	5585
1	1563	5586
1	1580	5587
1	1598	5588
1	1621	5589
1	1634	5590
1	1638	5591
1	1639	5592
1	1639	5593
1	1636	5594
1	1633	5595
1	1620	5596
1	1600	5597
1	1580	5598
1	1555	5599
1	1539	5600
1	1527	5601
1	1514	5602
1	1505	5603
1	1512	5604
1	1519	5605
1	1539	5606
1	1559	5607
1	1586	5608
1	1613	5609
1	1638	5610
1	1657	5611
1	1664	5612
1	1667	5613
1	1665	5614
1	1671	5615
1	1677	5616
1	1674	5617
1	1675	5618
1	1677	5619
1	1674	5660
1	1664	5661
1	1656	5662
1	1651	5663
1	1651	5664
1	1652	5665
1	1656	5666
1	1660	5667
1	1661	5668
1	1658	5669
1	1647	5670
1	1636	5671
1	1629	5672
1	1622	5673
1	1609	5674
1	1600	5675
1	1590	5676
1	1581	5677
1	1580	5678
1	1579	5679
1	1669	5620
1	1656	5621
1	1644	5622
1	1634	5623
1	1634	5624
1	1633	5625
1	1633	5626
1	1637	5627
1	1646	5628
1	1647	5629
1	1659	5630
1	1667	5631
1	1679	5632
1	1688	5633
1	1700	5634
1	1701	5635
1	1696	5636
1	1688	5637
1	1683	5638
1	1682	5639
1	1544	5700
1	1548	5701
1	1556	5702
1	1566	5703
1	1569	5704
1	1578	5705
1	1581	5706
1	1586	5707
1	1594	5708
1	1608	5709
1	1621	5710
1	1634	5711
1	1639	5712
1	1647	5713
1	1656	5714
1	1660	5715
1	1652	5716
1	1638	5717
1	1620	5718
1	1593	5719
1	1583	5680
1	1593	5681
1	1607	5682
1	1620	5683
1	1643	5684
1	1660	5685
1	1677	5686
1	1698	5687
1	1712	5688
1	1724	5689
1	1724	5690
1	1710	5691
1	1685	5692
1	1651	5693
1	1607	5694
1	1578	5695
1	1552	5696
1	1529	5697
1	1508	5698
1	1500	5699
1	1485	5680
1	1471	5681
1	1464	5682
1	1471	5683
1	1481	5684
1	1490	5685
1	1497	5686
1	1501	5687
1	1503	5688
1	1503	5689
1	1503	5690
1	1513	5691
1	1525	5692
1	1533	5693
1	1548	5694
1	1554	5695
1	1556	5696
1	1554	5697
1	1549	5698
1	1544	5699
1	1530	5740
1	1550	5741
1	1569	5742
1	1589	5743
1	1616	5744
1	1648	5745
1	1684	5746
1	1725	5747
1	1772	5748
1	1826	5749
1	1877	5750
1	1927	5751
1	1986	5752
1	2041	5753
1	2091	5754
1	2131	5755
1	2157	5756
1	2189	5757
1	2228	5758
1	2255	5759
1	1571	5720
1	1556	5721
1	1551	5722
1	1555	5723
1	1566	5724
1	1581	5725
1	1595	5726
1	1607	5727
1	1612	5728
1	1609	5729
1	1595	5730
1	1579	5731
1	1561	5732
1	1552	5733
1	1537	5734
1	1529	5735
1	1524	5736
1	1517	5737
1	1517	5738
1	1529	5739
1	2278	5760
1	2299	5761
1	2315	5762
1	2329	5763
1	2332	5764
1	2338	5765
1	2341	5766
1	2332	5767
1	2322	5768
1	2309	5769
1	2273	5770
1	2220	5771
1	2157	5772
1	2084	5773
1	2003	5774
1	1918	5775
1	1839	5776
1	1754	5777
1	1682	5778
1	1607	5779
1	1543	5780
1	1485	5781
1	1440	5782
1	1406	5783
1	1391	5784
1	1381	5785
1	1384	5786
1	1398	5787
1	1411	5788
1	1428	5789
1	1450	5790
1	1476	5791
1	1502	5792
1	1517	5793
1	1529	5794
1	1540	5795
1	1542	5796
1	1539	5797
1	1536	5798
1	1539	5799
1	1542	5800
1	1553	5801
1	1562	5802
1	1568	5803
1	1566	5804
1	1559	5805
1	1555	5806
1	1554	5807
1	1554	5808
1	1550	5809
1	1548	5810
1	1543	5811
1	1536	5812
1	1539	5813
1	1555	5814
1	1566	5815
1	1580	5816
1	1590	5817
1	1600	5818
1	1610	5819
1	1611	5820
1	1607	5821
1	1594	5822
1	1586	5823
1	1582	5824
1	1597	5825
1	1609	5826
1	1623	5827
1	1633	5828
1	1639	5829
1	1638	5830
1	1634	5831
1	1619	5832
1	1607	5833
1	1585	5834
1	1566	5835
1	1553	5836
1	1548	5837
1	1545	5838
1	1533	5839
1	1529	5840
1	1529	5841
1	1533	5842
1	1537	5843
1	1547	5844
1	1568	5845
1	1574	5846
1	1593	5847
1	1608	5848
1	1629	5849
1	1641	5850
1	1652	5851
1	1658	5852
1	1660	5853
1	1657	5854
1	1645	5855
1	1631	5856
1	1613	5857
1	1602	5858
1	1593	5859
1	1598	5860
1	1602	5861
1	1611	5862
1	1626	5863
1	1638	5864
1	1643	5865
1	1642	5866
1	1636	5867
1	1629	5868
1	1612	5869
1	1605	5870
1	1594	5871
1	1584	5872
1	1569	5873
1	1567	5874
1	1562	5875
1	1567	5876
1	1581	5877
1	1597	5878
1	1609	5879
1	1618	5900
1	1620	5901
1	1620	5902
1	1621	5903
1	1621	5904
1	1626	5905
1	1634	5906
1	1639	5907
1	1647	5908
1	1657	5909
1	1665	5910
1	1679	5911
1	1687	5912
1	1692	5913
1	1687	5914
1	1671	5915
1	1646	5916
1	1610	5917
1	1584	5918
1	1567	5919
1	1560	5900
1	1561	5901
1	1567	5902
1	1580	5903
1	1600	5904
1	1624	5905
1	1651	5906
1	1673	5907
1	1691	5908
1	1705	5909
1	1709	5910
1	1706	5911
1	1698	5912
1	1687	5913
1	1674	5914
1	1671	5915
1	1669	5916
1	1663	5917
1	1657	5918
1	1659	5919
1	1659	5920
1	1664	5921
1	1679	5922
1	1698	5923
1	1724	5924
1	1752	5925
1	1783	5926
1	1817	5927
1	1837	5928
1	1843	5929
1	1849	5930
1	1847	5931
1	1842	5932
1	1825	5933
1	1801	5934
1	1773	5935
1	1746	5936
1	1716	5937
1	1688	5938
1	1660	5939
1	1632	5940
1	1611	5941
1	1607	5942
1	1604	5943
1	1602	5944
1	1607	5945
1	1617	5946
1	1634	5947
1	1657	5948
1	1683	5949
1	1710	5950
1	1728	5951
1	1749	5952
1	1764	5953
1	1762	5954
1	1756	5955
1	1751	5956
1	1747	5957
1	1743	5958
1	1729	5959
1	1720	5960
1	1715	5961
1	1719	5962
1	1737	5963
1	1751	5964
1	1769	5965
1	1788	5966
1	1798	5967
1	1811	5968
1	1816	5969
1	1816	5970
1	1812	5971
1	1809	5972
1	1800	5973
1	1788	5974
1	1771	5975
1	1756	5976
1	1739	5977
1	1737	5978
1	1729	5979
1	1731	5980
1	1736	5981
1	1739	5982
1	1742	5983
1	1742	5984
1	1739	5985
1	1734	5986
1	1725	5987
1	1720	5988
1	1712	5989
1	1709	5990
1	1708	5991
1	1712	5992
1	1733	5993
1	1744	5994
1	1751	5995
1	1754	5996
1	1751	5997
1	1764	5998
1	1767	5999
1	1766	6000
1	1765	6001
1	1765	6002
1	1764	6003
1	1760	6004
1	1764	6005
1	1773	6006
1	1782	6007
1	1790	6008
1	1798	6009
1	1791	6010
1	1778	6011
1	1762	6012
1	1744	6013
1	1723	6014
1	1702	6015
1	1685	6016
1	1665	6017
1	1649	6018
1	1629	6019
1	1610	6020
1	1595	6021
1	1589	6022
1	1598	6023
1	1607	6024
1	1616	6025
1	1628	6026
1	1634	6027
1	1639	6028
1	1643	6029
1	1643	6030
1	1643	6031
1	1647	6032
1	1652	6033
1	1652	6034
1	1647	6035
1	1634	6036
1	1618	6037
1	1589	6038
1	1563	6039
1	1528	6040
1	1494	6041
1	1479	6042
1	1469	6043
1	1476	6044
1	1489	6045
1	1511	6046
1	1533	6047
1	1551	6048
1	1557	6049
1	1564	6050
1	1575	6051
1	1581	6052
1	1582	6053
1	1579	6054
1	1566	6055
1	1549	6056
1	1531	6057
1	1520	6058
1	1499	6059
1	1487	6060
1	1487	6061
1	1490	6062
1	1499	6063
1	1503	6064
1	1508	6065
1	1510	6066
1	1511	6067
1	1525	6068
1	1530	6069
1	1541	6070
1	1552	6071
1	1557	6072
1	1566	6073
1	1575	6074
1	1577	6075
1	1567	6076
1	1552	6077
1	1539	6078
1	1523	6079
1	1507	6080
1	1496	6081
1	1482	6082
1	1479	6083
1	1476	6084
1	1473	6085
1	1471	6086
1	1475	6087
1	1481	6088
1	1494	6089
1	1513	6090
1	1529	6091
1	1542	6092
1	1549	6093
1	1548	6094
1	1547	6095
1	1547	6096
1	1544	6097
1	1536	6098
1	1529	6099
1	1521	6100
1	1517	6101
1	1523	6102
1	1538	6103
1	1557	6104
1	1577	6105
1	1590	6106
1	1598	6107
1	1604	6108
1	1593	6109
1	1579	6110
1	1567	6111
1	1563	6112
1	1577	6113
1	1593	6114
1	1607	6115
1	1616	6116
1	1607	6117
1	1589	6118
1	1566	6119
1	1514	6140
1	1521	6141
1	1525	6142
1	1529	6143
1	1529	6144
1	1533	6145
1	1540	6146
1	1555	6147
1	1569	6148
1	1585	6149
1	1600	6150
1	1609	6151
1	1620	6152
1	1629	6153
1	1631	6154
1	1634	6155
1	1637	6156
1	1633	6157
1	1620	6158
1	1596	6159
1	1551	6120
1	1536	6121
1	1529	6122
1	1526	6123
1	1516	6124
1	1516	6125
1	1514	6126
1	1517	6127
1	1524	6128
1	1520	6129
1	1523	6130
1	1527	6131
1	1529	6132
1	1529	6133
1	1529	6134
1	1530	6135
1	1528	6136
1	1518	6137
1	1514	6138
1	1511	6139
1	1587	6160
1	1576	6161
1	1566	6162
1	1548	6163
1	1529	6164
1	1512	6165
1	1499	6166
1	1497	6167
1	1494	6168
1	1486	6169
1	1484	6170
1	1482	6171
1	1484	6172
1	1488	6173
1	1479	6174
1	1476	6175
1	1477	6176
1	1484	6177
1	1491	6178
1	1503	6179
1	1510	6180
1	1517	6181
1	1525	6182
1	1539	6183
1	1554	6184
1	1577	6185
1	1606	6186
1	1633	6187
1	1662	6188
1	1681	6189
1	1690	6190
1	1690	6191
1	1688	6192
1	1680	6193
1	1668	6194
1	1661	6195
1	1658	6196
1	1641	6197
1	1631	6198
1	1618	6199
1	1607	6200
1	1601	6201
1	1593	6202
1	1581	6203
1	1575	6204
1	1560	6205
1	1551	6206
1	1543	6207
1	1543	6208
1	1549	6209
1	1555	6210
1	1560	6211
1	1562	6212
1	1558	6213
1	1553	6214
1	1544	6215
1	1543	6216
1	1543	6217
1	1559	6218
1	1573	6219
1	1584	6220
1	1593	6221
1	1599	6222
1	1607	6223
1	1614	6224
1	1634	6225
1	1652	6226
1	1669	6227
1	1678	6228
1	1679	6229
1	1676	6230
1	1668	6231
1	1655	6232
1	1641	6233
1	1616	6234
1	1583	6235
1	1556	6236
1	1540	6237
1	1529	6238
1	1521	6239
1	1508	6240
1	1503	6241
1	1502	6242
1	1501	6243
1	1507	6244
1	1526	6245
1	1542	6246
1	1563	6247
1	1582	6248
1	1595	6249
1	1606	6250
1	1607	6251
1	1607	6252
1	1611	6253
1	1613	6254
1	1620	6255
1	1620	6256
1	1618	6257
1	1613	6258
1	1600	6259
1	1589	6260
1	1581	6261
1	1569	6262
1	1560	6263
1	1557	6264
1	1555	6265
1	1559	6266
1	1570	6267
1	1587	6268
1	1607	6269
1	1629	6270
1	1646	6271
1	1660	6272
1	1672	6273
1	1672	6274
1	1665	6275
1	1660	6276
1	1648	6277
1	1646	6278
1	1649	6279
1	1651	6280
1	1652	6281
1	1649	6282
1	1646	6283
1	1638	6284
1	1634	6285
1	1634	6286
1	1647	6287
1	1660	6288
1	1665	6289
1	1672	6290
1	1671	6291
1	1665	6292
1	1661	6293
1	1660	6294
1	1648	6295
1	1633	6296
1	1607	6297
1	1592	6298
1	1571	6299
1	1553	6300
1	1539	6301
1	1541	6302
1	1554	6303
1	1559	6304
1	1572	6305
1	1580	6306
1	1584	6307
1	1595	6308
1	1615	6309
1	1633	6310
1	1644	6311
1	1652	6312
1	1658	6313
1	1662	6314
1	1674	6315
1	1675	6316
1	1672	6317
1	1660	6318
1	1638	6319
1	1614	6320
1	1597	6321
1	1585	6322
1	1580	6323
1	1574	6324
1	1573	6325
1	1577	6326
1	1580	6327
1	1580	6328
1	1581	6329
1	1580	6330
1	1581	6331
1	1581	6332
1	1587	6333
1	1591	6334
1	1598	6335
1	1607	6336
1	1613	6337
1	1625	6338
1	1641	6339
1	1652	6340
1	1660	6341
1	1683	6342
1	1697	6343
1	1705	6344
1	1705	6345
1	1710	6346
1	1710	6347
1	1700	6348
1	1686	6349
1	1665	6350
1	1644	6351
1	1626	6352
1	1609	6353
1	1597	6354
1	1597	6355
1	1607	6356
1	1621	6357
1	1642	6358
1	1651	6359
1	1657	6360
1	1660	6361
1	1661	6362
1	1670	6363
1	1674	6364
1	1686	6365
1	1695	6366
1	1701	6367
1	1711	6368
1	1725	6369
1	1733	6370
1	1736	6371
1	1736	6372
1	1731	6373
1	1728	6374
1	1715	6375
1	1701	6376
1	1688	6377
1	1679	6378
1	1659	6379
1	1644	6380
1	1634	6381
1	1634	6382
1	1639	6383
1	1660	6384
1	1679	6385
1	1701	6386
1	1736	6387
1	1764	6388
1	1789	6389
1	1809	6390
1	1819	6391
1	1823	6392
1	1818	6393
1	1796	6394
1	1777	6395
1	1755	6396
1	1727	6397
1	1697	6398
1	1661	6399
1	1618	6400
1	1571	6401
1	1529	6402
1	1502	6403
1	1488	6404
1	1491	6405
1	1505	6406
1	1538	6407
1	1577	6408
1	1612	6409
1	1644	6410
1	1664	6411
1	1670	6412
1	1671	6413
1	1668	6414
1	1654	6415
1	1638	6416
1	1626	6417
1	1620	6418
1	1616	6419
1	1613	6420
1	1611	6421
1	1615	6422
1	1622	6423
1	1625	6424
1	1634	6425
1	1649	6426
1	1662	6427
1	1674	6428
1	1684	6429
1	1682	6430
1	1685	6431
1	1686	6432
1	1692	6433
1	1688	6434
1	1686	6435
1	1681	6436
1	1671	6437
1	1659	6438
1	1639	6439
1	1631	6440
1	1616	6441
1	1606	6442
1	1599	6443
1	1595	6444
1	1595	6445
1	1600	6446
1	1613	6447
1	1616	6448
1	1615	6449
1	1611	6450
1	1610	6451
1	1607	6452
1	1603	6453
1	1592	6454
1	1587	6455
1	1594	6456
1	1607	6457
1	1631	6458
1	1651	6459
1	1679	6460
1	1692	6461
1	1706	6462
1	1712	6463
1	1716	6464
1	1717	6465
1	1712	6466
1	1703	6467
1	1692	6468
1	1681	6469
1	1672	6470
1	1664	6471
1	1657	6472
1	1654	6473
1	1652	6474
1	1646	6475
1	1638	6476
1	1634	6477
1	1629	6478
1	1625	6479
1	1629	6480
1	1634	6481
1	1644	6482
1	1657	6483
1	1672	6484
1	1692	6485
1	1712	6486
1	1729	6487
1	1742	6488
1	1762	6489
1	1775	6490
1	1788	6491
1	1796	6492
1	1814	6493
1	1824	6494
1	1844	6495
1	1868	6496
1	1895	6497
1	1922	6498
1	1948	6499
1	1984	6500
1	2027	6501
1	2075	6502
1	2123	6503
1	2183	6504
1	2238	6505
1	2288	6506
1	2337	6507
1	2379	6508
1	2413	6509
1	2435	6510
1	2448	6511
1	2453	6512
1	2442	6513
1	2408	6514
1	2367	6515
1	2314	6516
1	2250	6517
1	2179	6518
1	2117	6519
1	2052	6520
1	1986	6521
1	1917	6522
1	1854	6523
1	1791	6524
1	1742	6525
1	1701	6526
1	1665	6527
1	1637	6528
1	1607	6529
1	1586	6530
1	1572	6531
1	1555	6532
1	1555	6533
1	1564	6534
1	1580	6535
1	1595	6536
1	1615	6537
1	1623	6538
1	1634	6539
1	1644	6580
1	1638	6581
1	1639	6582
1	1647	6583
1	1660	6584
1	1683	6585
1	1704	6586
1	1726	6587
1	1747	6588
1	1751	6589
1	1751	6590
1	1749	6591
1	1731	6592
1	1712	6593
1	1701	6594
1	1688	6595
1	1684	6596
1	1685	6597
1	1695	6598
1	1713	6599
1	1628	6540
1	1626	6541
1	1621	6542
1	1613	6543
1	1608	6544
1	1605	6545
1	1605	6546
1	1607	6547
1	1615	6548
1	1620	6549
1	1621	6550
1	1620	6551
1	1617	6552
1	1625	6553
1	1631	6554
1	1643	6555
1	1656	6556
1	1669	6557
1	1682	6558
1	1686	6559
1	1697	6560
1	1708	6561
1	1713	6562
1	1722	6563
1	1731	6564
1	1736	6565
1	1744	6566
1	1749	6567
1	1749	6568
1	1741	6569
1	1734	6570
1	1727	6571
1	1713	6572
1	1709	6573
1	1698	6574
1	1692	6575
1	1686	6576
1	1672	6577
1	1660	6578
1	1651	6579
1	1746	6600
1	1773	6601
1	1792	6602
1	1809	6603
1	1801	6604
1	1796	6605
1	1788	6606
1	1772	6607
1	1755	6608
1	1746	6609
1	1728	6610
1	1712	6611
1	1701	6612
1	1696	6613
1	1697	6614
1	1708	6615
1	1721	6616
1	1738	6617
1	1749	6618
1	1746	6619
1	1749	6640
1	1744	6641
1	1737	6642
1	1730	6643
1	1730	6644
1	1724	6645
1	1721	6646
1	1723	6647
1	1726	6648
1	1728	6649
1	1734	6650
1	1741	6651
1	1752	6652
1	1765	6653
1	1779	6654
1	1800	6655
1	1827	6656
1	1846	6657
1	1862	6658
1	1878	6659
1	1885	6640
1	1880	6641
1	1882	6642
1	1868	6643
1	1856	6644
1	1842	6645
1	1821	6646
1	1793	6647
1	1767	6648
1	1742	6649
1	1723	6650
1	1703	6651
1	1691	6652
1	1688	6653
1	1693	6654
1	1700	6655
1	1706	6656
1	1708	6657
1	1716	6658
1	1724	6659
1	1733	6660
1	1746	6661
1	1764	6662
1	1790	6663
1	1814	6664
1	1834	6665
1	1856	6666
1	1871	6667
1	1888	6668
1	1904	6669
1	1911	6670
1	1913	6671
1	1911	6672
1	1899	6673
1	1887	6674
1	1869	6675
1	1851	6676
1	1833	6677
1	1817	6678
1	1793	6679
1	1788	6680
1	1785	6681
1	1791	6682
1	1812	6683
1	1839	6684
1	1856	6685
1	1870	6686
1	1875	6687
1	1880	6688
1	1891	6689
1	1908	6690
1	1926	6691
1	1944	6692
1	1949	6693
1	1948	6694
1	1945	6695
1	1935	6696
1	1922	6697
1	1906	6698
1	1895	6699
1	1877	6700
1	1869	6701
1	1861	6702
1	1858	6703
1	1861	6704
1	1865	6705
1	1869	6706
1	1872	6707
1	1877	6708
1	1869	6709
1	1866	6710
1	1856	6711
1	1851	6712
1	1849	6713
1	1856	6714
1	1859	6715
1	1862	6716
1	1868	6717
1	1873	6718
1	1881	6719
1	1882	6720
1	1891	6721
1	1904	6722
1	1916	6723
1	1914	6724
1	1913	6725
1	1913	6726
1	1909	6727
1	1909	6728
1	1920	6729
1	1922	6730
1	1931	6731
1	1940	6732
1	1936	6733
1	1924	6734
1	1913	6735
1	1897	6736
1	1881	6737
1	1857	6738
1	1832	6739
1	1814	6740
1	1795	6741
1	1791	6742
1	1787	6743
1	1788	6744
1	1792	6745
1	1815	6746
1	1835	6747
1	1856	6748
1	1868	6749
1	1873	6750
1	1880	6751
1	1881	6752
1	1886	6753
1	1881	6754
1	1880	6755
1	1881	6756
1	1874	6757
1	1868	6758
1	1860	6759
1	1846	6760
1	1842	6761
1	1842	6762
1	1851	6763
1	1862	6764
1	1870	6765
1	1875	6766
1	1880	6767
1	1882	6768
1	1870	6769
1	1856	6770
1	1840	6771
1	1817	6772
1	1800	6773
1	1782	6774
1	1757	6775
1	1736	6776
1	1712	6777
1	1697	6778
1	1682	6779
1	1670	6780
1	1661	6781
1	1661	6782
1	1664	6783
1	1667	6784
1	1674	6785
1	1685	6786
1	1690	6787
1	1702	6788
1	1708	6789
1	1710	6790
1	1709	6791
1	1702	6792
1	1695	6793
1	1688	6794
1	1687	6795
1	1688	6796
1	1690	6797
1	1686	6798
1	1686	6799
1	1692	6800
1	1698	6801
1	1700	6802
1	1701	6803
1	1705	6804
1	1703	6805
1	1708	6806
1	1712	6807
1	1714	6808
1	1716	6809
1	1718	6810
1	1720	6811
1	1719	6812
1	1712	6813
1	1694	6814
1	1686	6815
1	1682	6816
1	1679	6817
1	1679	6818
1	1679	6819
1	1670	6820
1	1657	6821
1	1638	6822
1	1623	6823
1	1612	6824
1	1607	6825
1	1610	6826
1	1618	6827
1	1629	6828
1	1629	6829
1	1632	6830
1	1632	6831
1	1629	6832
1	1626	6833
1	1634	6834
1	1638	6835
1	1646	6836
1	1656	6837
1	1662	6838
1	1672	6839
1	1674	6840
1	1675	6841
1	1669	6842
1	1660	6843
1	1649	6844
1	1641	6845
1	1636	6846
1	1636	6847
1	1647	6848
1	1660	6849
1	1674	6850
1	1683	6851
1	1686	6852
1	1694	6853
1	1688	6854
1	1683	6855
1	1673	6856
1	1664	6857
1	1657	6858
1	1647	6859
1	1638	6860
1	1644	6861
1	1648	6862
1	1654	6863
1	1660	6864
1	1657	6865
1	1655	6866
1	1648	6867
1	1647	6868
1	1649	6869
1	1656	6870
1	1659	6871
1	1662	6872
1	1672	6873
1	1679	6874
1	1688	6875
1	1698	6876
1	1703	6877
1	1711	6878
1	1716	6879
1	1712	6880
1	1706	6881
1	1689	6882
1	1674	6883
1	1659	6884
1	1647	6885
1	1642	6886
1	1642	6887
1	1647	6888
1	1652	6889
1	1664	6890
1	1678	6891
1	1686	6892
1	1690	6893
1	1701	6894
1	1706	6895
1	1713	6896
1	1726	6897
1	1741	6898
1	1755	6899
1	1764	6900
1	1762	6901
1	1751	6902
1	1738	6903
1	1724	6904
1	1712	6905
1	1699	6906
1	1684	6907
1	1672	6908
1	1662	6909
1	1646	6910
1	1625	6911
1	1607	6912
1	1594	6913
1	1588	6914
1	1584	6915
1	1592	6916
1	1606	6917
1	1618	6918
1	1626	6919
1	1634	6920
1	1638	6921
1	1647	6922
1	1656	6923
1	1660	6924
1	1656	6925
1	1655	6926
1	1657	6927
1	1661	6928
1	1669	6929
1	1675	6930
1	1677	6931
1	1677	6932
1	1671	6933
1	1659	6934
1	1648	6935
1	1647	6936
1	1649	6937
1	1655	6938
1	1661	6939
1	1665	6940
1	1670	6941
1	1678	6942
1	1673	6943
1	1678	6944
1	1685	6945
1	1686	6946
1	1686	6947
1	1686	6948
1	1677	6949
1	1667	6950
1	1660	6951
1	1646	6952
1	1633	6953
1	1619	6954
1	1609	6955
1	1607	6956
1	1609	6957
1	1629	6958
1	1639	6959
1	1652	6960
1	1660	6961
1	1670	6962
1	1677	6963
1	1673	6964
1	1669	6965
1	1670	6966
1	1670	6967
1	1670	6968
1	1681	6969
1	1686	6970
1	1695	6971
1	1700	6972
1	1700	6973
1	1701	6974
1	1701	6975
1	1695	6976
1	1687	6977
1	1682	6978
1	1672	6979
1	1665	6980
1	1661	6981
1	1658	6982
1	1651	6983
1	1645	6984
1	1634	6985
1	1625	6986
1	1622	6987
1	1620	6988
1	1611	6989
1	1607	6990
1	1607	6991
1	1610	6992
1	1618	6993
1	1628	6994
1	1638	6995
1	1643	6996
1	1633	6997
1	1610	6998
1	1599	6999
1	1586	7000
1	1580	7001
1	1580	7002
1	1582	7003
1	1593	7004
1	1606	7005
1	1616	7006
1	1629	7007
1	1641	7008
1	1647	7009
1	1654	7010
1	1659	7011
1	1654	7012
1	1646	7013
1	1637	7014
1	1621	7015
1	1605	7016
1	1587	7017
1	1572	7018
1	1555	7019
1	1605	7040
1	1585	7041
1	1575	7042
1	1572	7043
1	1574	7044
1	1580	7045
1	1584	7046
1	1592	7047
1	1600	7048
1	1606	7049
1	1607	7050
1	1613	7051
1	1622	7052
1	1631	7053
1	1631	7054
1	1628	7055
1	1619	7056
1	1607	7057
1	1593	7058
1	1582	7059
1	1537	7020
1	1527	7021
1	1516	7022
1	1505	7023
1	1494	7024
1	1488	7025
1	1492	7026
1	1507	7027
1	1530	7028
1	1566	7029
1	1595	7030
1	1625	7031
1	1651	7032
1	1661	7033
1	1668	7034
1	1664	7035
1	1659	7036
1	1651	7037
1	1641	7038
1	1620	7039
1	1567	7060
1	1553	7061
1	1542	7062
1	1539	7063
1	1543	7064
1	1554	7065
1	1571	7066
1	1589	7067
1	1607	7068
1	1623	7069
1	1638	7070
1	1652	7071
1	1661	7072
1	1661	7073
1	1660	7074
1	1655	7075
1	1643	7076
1	1633	7077
1	1616	7078
1	1600	7079
1	1583	7080
1	1569	7081
1	1555	7082
1	1548	7083
1	1544	7084
1	1553	7085
1	1566	7086
1	1579	7087
1	1588	7088
1	1600	7089
1	1600	7090
1	1592	7091
1	1580	7092
1	1559	7093
1	1547	7094
1	1535	7095
1	1535	7096
1	1551	7097
1	1564	7098
1	1579	7099
1	1585	7100
1	1593	7101
1	1589	7102
1	1589	7103
1	1593	7104
1	1594	7105
1	1598	7106
1	1603	7107
1	1608	7108
1	1613	7109
1	1618	7110
1	1615	7111
1	1606	7112
1	1594	7113
1	1579	7114
1	1560	7115
1	1549	7116
1	1535	7117
1	1521	7118
1	1513	7119
1	1503	7120
1	1495	7121
1	1499	7122
1	1505	7123
1	1518	7124
1	1530	7125
1	1548	7126
1	1560	7127
1	1574	7128
1	1579	7129
1	1586	7130
1	1597	7131
1	1606	7132
1	1608	7133
1	1616	7134
1	1619	7135
1	1623	7136
1	1634	7137
1	1649	7138
1	1660	7139
1	1658	7140
1	1656	7141
1	1648	7142
1	1641	7143
1	1636	7144
1	1634	7145
1	1634	7146
1	1634	7147
1	1642	7148
1	1644	7149
1	1639	7150
1	1633	7151
1	1616	7152
1	1607	7153
1	1585	7154
1	1562	7155
1	1539	7156
1	1523	7157
1	1513	7158
1	1503	7159
1	1503	7160
1	1507	7161
1	1512	7162
1	1524	7163
1	1546	7164
1	1566	7165
1	1582	7166
1	1595	7167
1	1603	7168
1	1608	7169
1	1611	7170
1	1611	7171
1	1607	7172
1	1595	7173
1	1581	7174
1	1563	7175
1	1550	7176
1	1533	7177
1	1515	7178
1	1503	7179
1	1490	7180
1	1486	7181
1	1490	7182
1	1495	7183
1	1494	7184
1	1489	7185
1	1487	7186
1	1490	7187
1	1495	7188
1	1490	7189
1	1490	7190
1	1492	7191
1	1491	7192
1	1490	7193
1	1494	7194
1	1490	7195
1	1485	7196
1	1478	7197
1	1476	7198
1	1476	7199
1	1481	7200
1	1492	7201
1	1508	7202
1	1526	7203
1	1541	7204
1	1555	7205
1	1571	7206
1	1581	7207
1	1581	7208
1	1580	7209
1	1569	7210
1	1557	7211
1	1548	7212
1	1540	7213
1	1529	7214
1	1517	7215
1	1503	7216
1	1494	7217
1	1488	7218
1	1471	7219
1	1461	7220
1	1459	7221
1	1464	7222
1	1472	7223
1	1487	7224
1	1491	7225
1	1499	7226
1	1503	7227
1	1508	7228
1	1516	7229
1	1525	7230
1	1532	7231
1	1535	7232
1	1529	7233
1	1507	7234
1	1488	7235
1	1469	7236
1	1459	7237
1	1459	7238
1	1476	7239
1	1492	7240
1	1512	7241
1	1544	7242
1	1577	7243
1	1607	7244
1	1644	7245
1	1668	7246
1	1688	7247
1	1710	7248
1	1734	7249
1	1756	7250
1	1777	7251
1	1796	7252
1	1827	7253
1	1858	7254
1	1893	7255
1	1922	7256
1	1956	7257
1	2000	7258
1	2038	7259
1	2079	7260
1	2120	7261
1	2157	7262
1	2196	7263
1	2215	7264
1	2237	7265
1	2255	7266
1	2262	7267
1	2263	7268
1	2271	7269
1	2263	7270
1	2244	7271
1	2209	7272
1	2165	7273
1	2118	7274
1	2058	7275
1	1988	7276
1	1913	7277
1	1838	7278
1	1751	7279
1	1675	7280
1	1607	7281
1	1551	7282
1	1503	7283
1	1467	7284
1	1438	7285
1	1419	7286
1	1401	7287
1	1380	7288
1	1362	7289
1	1347	7290
1	1345	7291
1	1348	7292
1	1361	7293
1	1369	7294
1	1379	7295
1	1398	7296
1	1418	7297
1	1438	7298
1	1461	7299
1	1476	7300
1	1484	7301
1	1490	7302
1	1492	7303
1	1490	7304
1	1485	7305
1	1481	7306
1	1481	7307
1	1489	7308
1	1503	7309
1	1525	7310
1	1551	7311
1	1567	7312
1	1580	7313
1	1581	7314
1	1572	7315
1	1555	7316
1	1539	7317
1	1517	7318
1	1494	7319
1	1481	7340
1	1482	7341
1	1485	7342
1	1482	7343
1	1484	7344
1	1485	7345
1	1488	7346
1	1491	7347
1	1490	7348
1	1499	7349
1	1504	7350
1	1513	7351
1	1525	7352
1	1526	7353
1	1525	7354
1	1527	7355
1	1527	7356
1	1521	7357
1	1516	7358
1	1512	7359
1	1469	7320
1	1450	7321
1	1438	7322
1	1435	7323
1	1427	7324
1	1423	7325
1	1420	7326
1	1423	7327
1	1427	7328
1	1443	7329
1	1454	7330
1	1474	7331
1	1494	7332
1	1513	7333
1	1528	7334
1	1529	7335
1	1528	7336
1	1515	7337
1	1503	7338
1	1486	7339
1	1512	7360
1	1505	7361
1	1503	7362
1	1500	7363
1	1502	7364
1	1504	7365
1	1505	7366
1	1503	7367
1	1496	7368
1	1481	7369
1	1469	7370
1	1463	7371
1	1461	7372
1	1458	7373
1	1463	7374
1	1463	7375
1	1472	7376
1	1476	7377
1	1485	7378
1	1502	7379
1	1521	7380
1	1537	7381
1	1555	7382
1	1567	7383
1	1571	7384
1	1576	7385
1	1580	7386
1	1579	7387
1	1575	7388
1	1577	7389
1	1572	7390
1	1566	7391
1	1561	7392
1	1559	7393
1	1555	7394
1	1553	7395
1	1544	7396
1	1531	7397
1	1529	7398
1	1525	7399
1	1515	7400
1	1504	7401
1	1503	7402
1	1513	7403
1	1529	7404
1	1531	7405
1	1529	7406
1	1529	7407
1	1529	7408
1	1538	7409
1	1543	7410
1	1548	7411
1	1559	7412
1	1581	7413
1	1598	7414
1	1624	7415
1	1647	7416
1	1657	7417
1	1664	7418
1	1670	7419
1	1669	7420
1	1665	7421
1	1660	7422
1	1648	7423
1	1636	7424
1	1625	7425
1	1616	7426
1	1611	7427
1	1607	7428
1	1590	7429
1	1577	7430
1	1561	7431
1	1554	7432
1	1544	7433
1	1543	7434
1	1543	7435
1	1553	7436
1	1561	7437
1	1574	7438
1	1587	7439
1	1593	7440
1	1603	7441
1	1608	7442
1	1610	7443
1	1607	7444
1	1597	7445
1	1595	7446
1	1596	7447
1	1597	7448
1	1595	7449
1	1593	7450
1	1590	7451
1	1583	7452
1	1584	7453
1	1584	7454
1	1585	7455
1	1588	7456
1	1593	7457
1	1597	7458
1	1595	7459
1	1596	7460
1	1603	7461
1	1611	7462
1	1628	7463
1	1648	7464
1	1664	7465
1	1680	7466
1	1694	7467
1	1706	7468
1	1719	7469
1	1731	7470
1	1738	7471
1	1742	7472
1	1736	7473
1	1716	7474
1	1701	7475
1	1691	7476
1	1679	7477
1	1670	7478
1	1668	7479
1	1659	7480
1	1647	7481
1	1638	7482
1	1639	7483
1	1643	7484
1	1637	7485
1	1631	7486
1	1624	7487
1	1630	7488
1	1638	7489
1	1657	7490
1	1679	7491
1	1697	7492
1	1714	7493
1	1734	7494
1	1737	7495
1	1733	7496
1	1712	7497
1	1701	7498
1	1677	7499
1	1650	7500
1	1629	7501
1	1611	7502
1	1602	7503
1	1587	7504
1	1581	7505
1	1579	7506
1	1580	7507
1	1585	7508
1	1596	7509
1	1601	7510
1	1602	7511
1	1593	7512
1	1584	7513
1	1572	7514
1	1557	7515
1	1544	7516
1	1529	7517
1	1504	7518
1	1482	7519
1	1474	7520
1	1468	7521
1	1468	7522
1	1476	7523
1	1491	7524
1	1503	7525
1	1518	7526
1	1537	7527
1	1555	7528
1	1573	7529
1	1586	7530
1	1593	7531
1	1592	7532
1	1580	7533
1	1556	7534
1	1535	7535
1	1526	7536
1	1518	7537
1	1520	7538
1	1525	7539
1	1528	7540
1	1528	7541
1	1539	7542
1	1542	7543
1	1546	7544
1	1544	7545
1	1539	7546
1	1530	7547
1	1528	7548
1	1528	7549
1	1521	7550
1	1503	7551
1	1476	7552
1	1450	7553
1	1424	7554
1	1402	7555
1	1379	7556
1	1364	7557
1	1367	7558
1	1372	7559
1	1384	7560
1	1412	7561
1	1436	7562
1	1454	7563
1	1467	7564
1	1476	7565
1	1476	7566
1	1469	7567
1	1462	7568
1	1454	7569
1	1438	7570
1	1423	7571
1	1400	7572
1	1384	7573
1	1370	7574
1	1350	7575
1	1333	7576
1	1321	7577
1	1317	7578
1	1308	7579
1	1304	7580
1	1314	7581
1	1331	7582
1	1345	7583
1	1364	7584
1	1377	7585
1	1402	7586
1	1426	7587
1	1445	7588
1	1464	7589
1	1476	7590
1	1486	7591
1	1487	7592
1	1476	7593
1	1450	7594
1	1424	7595
1	1397	7596
1	1369	7597
1	1348	7598
1	1347	7599
1	1354	7600
1	1374	7601
1	1401	7602
1	1425	7603
1	1450	7604
1	1473	7605
1	1489	7606
1	1498	7607
1	1503	7608
1	1500	7609
1	1490	7610
1	1484	7611
1	1481	7612
1	1484	7613
1	1485	7614
1	1466	7615
1	1445	7616
1	1423	7617
1	1400	7618
1	1382	7619
1	1372	7620
1	1366	7621
1	1357	7622
1	1350	7623
1	1351	7624
1	1364	7625
1	1379	7626
1	1398	7627
1	1419	7628
1	1442	7629
1	1458	7630
1	1476	7631
1	1481	7632
1	1481	7633
1	1476	7634
1	1476	7635
1	1468	7636
1	1456	7637
1	1437	7638
1	1416	7639
1	1406	7640
1	1407	7641
1	1409	7642
1	1412	7643
1	1416	7644
1	1418	7645
1	1425	7646
1	1440	7647
1	1453	7648
1	1456	7649
1	1458	7650
1	1450	7651
1	1442	7652
1	1437	7653
1	1435	7654
1	1427	7655
1	1419	7656
1	1400	7657
1	1376	7658
1	1358	7659
1	1347	7660
1	1346	7661
1	1348	7662
1	1357	7663
1	1362	7664
1	1368	7665
1	1376	7666
1	1395	7667
1	1411	7668
1	1424	7669
1	1436	7670
1	1445	7671
1	1448	7672
1	1443	7673
1	1441	7674
1	1431	7675
1	1415	7676
1	1395	7677
1	1372	7678
1	1350	7679
1	1337	7680
1	1322	7681
1	1315	7682
1	1311	7683
1	1313	7684
1	1329	7685
1	1353	7686
1	1391	7687
1	1421	7688
1	1445	7689
1	1453	7690
1	1462	7691
1	1463	7692
1	1461	7693
1	1463	7694
1	1459	7695
1	1451	7696
1	1437	7697
1	1424	7698
1	1409	7699
1	1399	7700
1	1384	7701
1	1380	7702
1	1373	7703
1	1373	7704
1	1371	7705
1	1363	7706
1	1355	7707
1	1355	7708
1	1349	7709
1	1345	7710
1	1334	7711
1	1322	7712
1	1319	7713
1	1321	7714
1	1319	7715
1	1312	7716
1	1311	7717
1	1315	7718
1	1323	7719
1	1332	7720
1	1354	7721
1	1382	7722
1	1419	7723
1	1449	7724
1	1477	7725
1	1508	7726
1	1536	7727
1	1555	7728
1	1557	7729
1	1553	7730
1	1542	7731
1	1525	7732
1	1499	7733
1	1467	7734
1	1426	7735
1	1379	7736
1	1335	7737
1	1290	7738
1	1251	7739
1	1220	7740
1	1202	7741
1	1188	7742
1	1173	7743
1	1158	7744
1	1152	7745
1	1162	7746
1	1178	7747
1	1200	7748
1	1223	7749
1	1253	7750
1	1281	7751
1	1314	7752
1	1346	7753
1	1364	7754
1	1373	7755
1	1373	7756
1	1366	7757
1	1345	7758
1	1319	7759
1	1175	7780
1	1185	7781
1	1205	7782
1	1228	7783
1	1255	7784
1	1281	7785
1	1301	7786
1	1319	7787
1	1332	7788
1	1332	7789
1	1332	7790
1	1332	7791
1	1335	7792
1	1334	7793
1	1332	7794
1	1312	7795
1	1283	7796
1	1253	7797
1	1233	7798
1	1215	7799
1	1207	7800
1	1209	7801
1	1207	7802
1	1207	7803
1	1206	7804
1	1212	7805
1	1215	7806
1	1223	7807
1	1237	7808
1	1255	7809
1	1267	7810
1	1274	7811
1	1275	7812
1	1268	7813
1	1263	7814
1	1260	7815
1	1259	7816
1	1256	7817
1	1255	7818
1	1249	7819
1	1306	7760
1	1296	7761
1	1292	7762
1	1289	7763
1	1293	7764
1	1301	7765
1	1319	7766
1	1346	7767
1	1371	7768
1	1381	7769
1	1382	7770
1	1372	7771
1	1347	7772
1	1323	7773
1	1293	7774
1	1260	7775
1	1230	7776
1	1207	7777
1	1189	7778
1	1177	7779
1	1249	7820
1	1252	7821
1	1249	7822
1	1241	7823
1	1228	7824
1	1211	7825
1	1188	7826
1	1181	7827
1	1188	7828
1	1199	7829
1	1210	7830
1	1215	7831
1	1217	7832
1	1228	7833
1	1237	7834
1	1255	7835
1	1273	7836
1	1284	7837
1	1306	7838
1	1318	7839
1	1171	7860
1	1193	7861
1	1215	7862
1	1229	7863
1	1236	7864
1	1239	7865
1	1237	7866
1	1232	7867
1	1235	7868
1	1246	7869
1	1248	7870
1	1245	7871
1	1244	7872
1	1255	7873
1	1268	7874
1	1279	7875
1	1282	7876
1	1280	7877
1	1280	7878
1	1276	7879
1	1323	7840
1	1325	7841
1	1333	7842
1	1325	7843
1	1319	7844
1	1311	7845
1	1301	7846
1	1292	7847
1	1282	7848
1	1276	7849
1	1265	7850
1	1253	7851
1	1241	7852
1	1223	7853
1	1200	7854
1	1179	7855
1	1162	7856
1	1151	7857
1	1149	7858
1	1157	7859
1	1282	7880
1	1293	7881
1	1312	7882
1	1323	7883
1	1345	7884
1	1369	7885
1	1399	7886
1	1426	7887
1	1440	7888
1	1443	7889
1	1440	7890
1	1432	7891
1	1421	7892
1	1400	7893
1	1373	7894
1	1350	7895
1	1330	7896
1	1308	7897
1	1285	7898
1	1275	7899
1	1262	7900
1	1247	7901
1	1241	7902
1	1243	7903
1	1256	7904
1	1271	7905
1	1291	7906
1	1312	7907
1	1340	7908
1	1364	7909
1	1394	7910
1	1409	7911
1	1417	7912
1	1418	7913
1	1420	7914
1	1407	7915
1	1380	7916
1	1346	7917
1	1317	7918
1	1292	7919
1	1335	7940
1	1323	7941
1	1315	7942
1	1304	7943
1	1296	7944
1	1297	7945
1	1307	7946
1	1319	7947
1	1344	7948
1	1362	7949
1	1376	7950
1	1381	7951
1	1375	7952
1	1368	7953
1	1348	7954
1	1334	7955
1	1319	7956
1	1297	7957
1	1281	7958
1	1268	7959
1	1278	7920
1	1273	7921
1	1271	7922
1	1271	7923
1	1267	7924
1	1271	7925
1	1280	7926
1	1291	7927
1	1297	7928
1	1315	7929
1	1323	7930
1	1331	7931
1	1331	7932
1	1332	7933
1	1337	7934
1	1341	7935
1	1344	7936
1	1345	7937
1	1346	7938
1	1341	7939
1	1253	7960
1	1242	7961
1	1241	7962
1	1252	7963
1	1270	7964
1	1297	7965
1	1330	7966
1	1357	7967
1	1384	7968
1	1405	7969
1	1425	7970
1	1439	7971
1	1442	7972
1	1442	7973
1	1440	7974
1	1430	7975
1	1415	7976
1	1404	7977
1	1398	7978
1	1396	7979
1	1384	7980
1	1376	7981
1	1372	7982
1	1372	7983
1	1373	7984
1	1380	7985
1	1391	7986
1	1402	7987
1	1413	7988
1	1422	7989
1	1422	7990
1	1419	7991
1	1413	7992
1	1409	7993
1	1400	7994
1	1393	7995
1	1383	7996
1	1373	7997
1	1372	7998
1	1373	7999
1	1382	8000
1	1396	8000
1	1407	8002
1	1425	8003
1	1451	8004
1	1479	8005
1	1514	8006
1	1555	8007
1	1595	8008
1	1633	8009
1	1661	8010
1	1696	8011
1	1724	8012
1	1750	8013
1	1765	8013
1	1795	8015
1	1839	8016
1	1881	8016
1	1926	8018
1	1976	8019
1	2024	8020
1	2068	8021
1	2117	8022
1	2161	8023
1	2199	8024
1	2238	8025
1	2273	8026
1	2300	8027
1	2317	8028
1	2318	8029
1	2314	8029
1	2300	8031
1	2275	8032
1	2236	8032
1	2187	8034
1	2131	8035
1	2071	8036
1	2011	8037
1	1947	8038
1	1870	8039
1	1778	8040
1	1697	8041
1	1621	8042
1	1561	8043
1	1513	8044
1	1476	8045
1	1447	8045
1	1418	8047
1	1391	8048
1	1359	8048
1	1332	8050
1	1310	8051
1	1294	8052
1	1293	8053
1	1294	8054
1	1313	8055
1	1337	8056
1	1363	8057
1	1395	8058
1	1413	8059
1	1527	8080
1	1534	8080
1	1545	8082
1	1553	8083
1	1556	8084
1	1563	8085
1	1577	8086
1	1589	8087
1	1595	8088
1	1593	8089
1	1596	8090
1	1598	8090
1	1599	8092
1	1597	8093
1	1598	8093
1	1595	8095
1	1594	8096
1	1596	8096
1	1596	8098
1	1592	8099
1	1436	8060
1	1464	8061
1	1490	8061
1	1519	8063
1	1551	8064
1	1572	8064
1	1592	8066
1	1603	8067
1	1607	8068
1	1605	8069
1	1593	8070
1	1577	8071
1	1559	8072
1	1546	8073
1	1528	8074
1	1512	8074
1	1503	8076
1	1503	8077
1	1508	8077
1	1521	8079
1	1581	8100
1	1574	8101
1	1569	8102
1	1569	8103
1	1567	8104
1	1569	8105
1	1580	8106
1	1592	8106
1	1600	8108
1	1612	8109
1	1620	8109
1	1625	8111
1	1632	8112
1	1634	8113
1	1636	8114
1	1639	8115
1	1640	8116
1	1633	8117
1	1621	8118
1	1608	8119
1	1605	8120
1	1605	8121
1	1602	8122
1	1602	8122
1	1607	8124
1	1613	8125
1	1628	8125
1	1643	8127
1	1660	8128
1	1672	8129
1	1680	8130
1	1682	8131
1	1678	8132
1	1678	8133
1	1675	8134
1	1683	8135
1	1684	8136
1	1682	8137
1	1674	8138
1	1674	8138
1	1669	8140
1	1671	8141
1	1679	8141
1	1683	8143
1	1687	8144
1	1697	8145
1	1699	8146
1	1701	8147
1	1698	8148
1	1697	8149
1	1701	8150
1	1708	8151
1	1712	8152
1	1712	8153
1	1718	8154
1	1722	8154
1	1725	8156
1	1730	8157
1	1744	8157
1	1750	8159
1	1750	8160
1	1743	8161
1	1738	8162
1	1738	8163
1	1737	8164
1	1744	8165
1	1760	8166
1	1773	8167
1	1785	8168
1	1799	8169
1	1811	8170
1	1817	8170
1	1818	8172
1	1821	8173
1	1818	8173
1	1813	8175
1	1796	8176
1	1788	8177
1	1775	8178
1	1757	8179
1	1747	8180
1	1742	8181
1	1748	8182
1	1760	8183
1	1779	8184
1	1793	8185
1	1817	8186
1	1841	8186
1	1858	8188
1	1872	8189
1	1886	8189
1	1896	8191
1	1899	8192
1	1895	8193
1	1877	8194
1	1867	8195
1	1854	8196
1	1841	8197
1	1827	8198
1	1824	8199
1	1821	8200
1	1829	8201
1	1845	8202
1	1863	8203
1	1885	8204
1	1906	8205
1	1922	8206
1	1932	8207
1	1947	8208
1	1950	8209
1	1962	8210
1	1971	8211
1	1969	8212
1	1967	8213
1	1969	8214
1	1965	8215
1	1958	8216
1	1948	8217
1	1944	8218
1	1934	8219
1	1926	8220
1	1917	8221
1	1906	8222
1	1901	8223
1	1896	8224
1	1903	8225
1	1917	8226
1	1933	8227
1	1952	8228
1	1974	8229
1	1991	8230
1	2000	8231
1	2003	8232
1	2003	8233
1	2003	8234
1	2001	8235
1	2000	8236
1	1999	8237
1	1998	8238
1	1991	8239
1	1992	8240
1	1993	8241
1	1991	8242
1	1983	8243
1	1976	8244
1	1974	8245
1	1971	8246
1	1963	8247
1	1962	8248
1	1948	8249
1	1942	8250
1	1940	8251
1	1944	8252
1	1948	8253
1	1949	8254
1	1959	8255
1	1973	8256
1	1980	8257
1	1991	8258
1	2002	8259
1	1869	8280
1	1877	8281
1	1888	8282
1	1899	8283
1	1904	8284
1	1914	8285
1	1924	8286
1	1933	8287
1	1942	8288
1	1955	8289
1	1959	8290
1	1957	8291
1	1948	8292
1	1936	8293
1	1926	8294
1	1922	8295
1	1921	8296
1	1916	8297
1	1908	8298
1	1886	8299
1	2007	8260
1	2016	8261
1	2027	8262
1	2040	8263
1	2044	8264
1	2045	8265
1	2039	8266
1	2026	8267
1	2011	8268
1	1981	8269
1	1955	8270
1	1927	8271
1	1906	8272
1	1893	8273
1	1888	8274
1	1884	8275
1	1875	8276
1	1869	8277
1	1868	8278
1	1868	8279
1	1869	8300
1	1857	8301
1	1851	8302
1	1845	8303
1	1845	8304
1	1847	8305
1	1850	8306
1	1855	8307
1	1865	8308
1	1877	8309
1	1890	8310
1	1898	8311
1	1908	8312
1	1913	8313
1	1904	8314
1	1891	8315
1	1881	8316
1	1867	8317
1	1855	8318
1	1843	8319
1	1824	8320
1	1800	8321
1	1785	8322
1	1778	8323
1	1777	8324
1	1777	8325
1	1780	8326
1	1790	8327
1	1809	8328
1	1822	8329
1	1844	8330
1	1863	8331
1	1877	8332
1	1887	8333
1	1895	8334
1	1888	8335
1	1879	8336
1	1869	8337
1	1855	8338
1	1842	8339
1	1823	8340
1	1809	8341
1	1790	8342
1	1779	8343
1	1777	8344
1	1782	8345
1	1793	8346
1	1814	8347
1	1830	8348
1	1844	8349
1	1857	8350
1	1869	8351
1	1872	8352
1	1883	8353
1	1881	8354
1	1874	8355
1	1868	8356
1	1857	8357
1	1853	8358
1	1840	8359
1	1831	8360
1	1823	8361
1	1822	8362
1	1831	8363
1	1852	8364
1	1867	8365
1	1885	8366
1	1907	8367
1	1927	8368
1	1947	8369
1	1949	8370
1	1948	8371
1	1946	8372
1	1944	8373
1	1934	8374
1	1922	8375
1	1911	8376
1	1898	8377
1	1884	8378
1	1875	8379
1	1868	8380
1	1857	8381
1	1848	8382
1	1843	8383
1	1840	8384
1	1843	8385
1	1852	8386
1	1868	8387
1	1884	8388
1	1895	8389
1	1908	8390
1	1917	8391
1	1922	8392
1	1924	8393
1	1935	8394
1	1939	8395
1	1944	8396
1	1938	8397
1	1936	8398
1	1937	8399
1	1935	8400
1	1940	8401
1	1948	8402
1	1955	8403
1	1965	8404
1	1974	8405
1	1983	8406
1	1989	8407
1	1992	8408
1	2000	8409
1	2000	8410
1	2000	8411
1	1998	8412
1	1982	8413
1	1961	8414
1	1935	8415
1	1909	8416
1	1892	8417
1	1872	8418
1	1852	8419
1	1836	8420
1	1819	8421
1	1812	8422
1	1808	8423
1	1820	8424
1	1830	8425
1	1843	8426
1	1863	8427
1	1885	8428
1	1908	8429
1	1931	8430
1	1951	8431
1	1975	8432
1	2000	8433
1	2013	8434
1	2039	8435
1	2066	8436
1	2089	8437
1	2114	8438
1	2138	8439
1	2143	8440
1	2129	8441
1	2120	8442
1	2087	8443
1	2064	8444
1	2026	8445
1	1999	8446
1	1974	8447
1	1962	8448
1	1961	8449
1	1962	8450
1	1961	8451
1	1959	8452
1	1953	8453
1	1947	8454
1	1936	8455
1	1931	8456
1	1922	8457
1	1923	8458
1	1922	8459
1	1917	8460
1	1917	8461
1	1922	8462
1	1937	8463
1	1948	8464
1	1963	8465
1	1984	8466
1	2005	8467
1	2025	8468
1	2049	8469
1	2058	8470
1	2068	8471
1	2078	8472
1	2077	8473
1	2070	8474
1	2061	8475
1	2053	8476
1	2044	8477
1	2037	8478
1	2024	8479
1	2013	8480
1	2002	8481
1	1992	8482
1	1983	8483
1	1981	8484
1	1976	8485
1	1969	8486
1	1960	8487
1	1958	8488
1	1961	8489
1	1970	8490
1	1977	8491
1	1983	8492
1	1988	8493
1	1986	8494
1	1992	8495
1	2000	8496
1	2004	8497
1	2007	8498
1	2014	8499
1	2009	8500
1	2011	8501
1	2004	8502
1	2000	8503
1	1998	8504
1	1994	8505
1	1993	8506
1	1988	8507
1	1985	8508
1	1974	8509
1	1974	8510
1	1974	8511
1	1976	8512
1	1988	8513
1	2004	8514
1	2016	8515
1	2030	8516
1	2043	8517
1	2055	8518
1	2068	8519
1	2079	8520
1	2089	8521
1	2093	8522
1	2093	8523
1	2079	8524
1	2070	8525
1	2066	8526
1	2068	8527
1	2078	8528
1	2097	8529
1	2106	8530
1	2112	8531
1	2115	8532
1	2117	8533
1	2116	8534
1	2113	8535
1	2105	8536
1	2086	8537
1	2066	8538
1	2043	8539
1	2026	8540
1	2016	8541
1	2008	8542
1	1998	8543
1	1987	8544
1	1978	8545
1	1974	8546
1	1973	8547
1	1996	8548
1	2014	8549
1	2030	8550
1	2035	8551
1	2037	8552
1	2038	8553
1	2032	8554
1	2035	8555
1	2039	8556
1	2040	8557
1	2040	8558
1	2043	8559
1	2068	8580
1	2057	8581
1	2049	8582
1	2036	8583
1	2017	8584
1	2006	8585
1	1997	8586
1	1987	8587
1	1984	8588
1	1989	8589
1	1986	8590
1	1986	8591
1	1989	8592
1	1996	8593
1	1998	8594
1	2000	8595
1	2010	8596
1	2026	8597
1	2050	8598
1	2061	8599
1	2039	8560
1	2035	8561
1	2031	8562
1	2026	8563
1	2021	8564
1	2017	8565
1	2024	8566
1	2034	8567
1	2048	8568
1	2051	8569
1	2057	8570
1	2064	8571
1	2075	8572
1	2084	8573
1	2105	8574
1	2113	8575
1	2112	8576
1	2104	8577
1	2089	8578
1	2079	8579
1	2075	8600
1	2084	8601
1	2096	8602
1	2109	8603
1	2130	8604
1	2136	8605
1	2138	8606
1	2135	8607
1	2132	8608
1	2130	8609
1	2125	8610
1	2122	8611
1	2117	8612
1	2111	8613
1	2100	8614
1	2087	8615
1	2075	8616
1	2058	8617
1	2050	8618
1	2049	8619
1	2035	8620
1	2026	8621
1	2017	8622
1	2012	8623
1	2016	8624
1	2028	8625
1	2050	8626
1	2070	8627
1	2088	8628
1	2095	8629
1	2102	8630
1	2101	8631
1	2096	8632
1	2087	8633
1	2080	8634
1	2061	8635
1	2040	8636
1	2021	8637
1	2008	8638
1	1997	8639
1	1983	8640
1	1983	8641
1	1989	8642
1	2000	8643
1	2013	8644
1	2026	8645
1	2040	8646
1	2054	8647
1	2070	8648
1	2087	8649
1	2102	8650
1	2118	8651
1	2131	8652
1	2144	8653
1	2138	8654
1	2131	8655
1	2117	8656
1	2102	8657
1	2086	8658
1	2066	8659
1	2052	8660
1	2040	8661
1	2039	8662
1	2041	8663
1	2052	8664
1	2075	8665
1	2089	8666
1	2104	8667
1	2111	8668
1	2115	8669
1	2115	8670
1	2115	8671
1	2110	8672
1	2102	8673
1	2081	8674
1	2068	8675
1	2056	8676
1	2042	8677
1	2028	8678
1	2025	8679
1	2012	8680
1	2003	8681
1	2003	8682
1	2013	8683
1	2024	8684
1	2034	8685
1	2052	8686
1	2068	8687
1	2083	8688
1	2091	8689
1	2101	8690
1	2106	8691
1	2115	8692
1	2129	8693
1	2147	8694
1	2157	8695
1	2162	8696
1	2166	8697
1	2165	8698
1	2160	8699
1	2157	8700
1	2157	8701
1	2161	8702
1	2158	8703
1	2157	8704
1	2159	8705
1	2169	8706
1	2173	8707
1	2174	8708
1	2173	8709
1	2159	8710
1	2140	8711
1	2118	8712
1	2091	8713
1	2065	8714
1	2052	8715
1	2040	8716
1	2037	8717
1	2038	8718
1	2038	8719
1	2052	8720
1	2066	8721
1	2085	8722
1	2106	8723
1	2137	8724
1	2158	8725
1	2176	8726
1	2189	8727
1	2192	8728
1	2195	8729
1	2192	8730
1	2184	8731
1	2175	8732
1	2166	8733
1	2142	8734
1	2120	8735
1	2097	8736
1	2079	8737
1	2057	8738
1	2050	8739
1	2033	8740
1	2015	8741
1	2011	8742
1	1994	8743
1	1974	8744
1	1970	8745
1	1968	8746
1	1971	8747
1	1978	8748
1	1988	8749
1	2000	8750
1	2009	8751
1	2016	8752
1	2021	8753
1	2025	8754
1	2027	8755
1	2033	8756
1	2035	8757
1	2040	8758
1	2039	8759
1	2039	8760
1	2037	8761
1	2032	8762
1	2028	8763
1	2012	8764
1	2003	8765
1	1999	8766
1	1996	8767
1	1998	8768
1	2008	8769
1	2025	8770
1	2049	8771
1	2079	8772
1	2105	8773
1	2126	8774
1	2140	8775
1	2152	8776
1	2156	8777
1	2149	8778
1	2130	8779
1	2116	8780
1	2097	8781
1	2074	8782
1	2052	8783
1	2043	8784
1	2025	8785
1	2004	8786
1	1990	8787
1	1976	8788
1	1966	8789
1	1959	8790
1	1960	8791
1	1962	8792
1	1973	8793
1	1973	8794
1	1979	8795
1	1988	8796
1	1990	8797
1	1992	8798
1	2003	8799
1	2012	8800
1	2025	8801
1	2026	8802
1	2048	8803
1	2062	8804
1	2079	8805
1	2093	8806
1	2105	8807
1	2107	8808
1	2101	8809
1	2091	8810
1	2079	8811
1	2064	8812
1	2050	8813
1	2057	8814
1	2066	8815
1	2073	8816
1	2075	8817
1	2071	8818
1	2079	8819
1	2084	8820
1	2096	8821
1	2105	8822
1	2121	8823
1	2142	8824
1	2168	8825
1	2196	8826
1	2222	8827
1	2258	8828
1	2300	8829
1	2338	8830
1	2379	8831
1	2421	8832
1	2462	8833
1	2496	8834
1	2522	8835
1	2558	8836
1	2591	8837
1	2631	8838
1	2664	8839
1	2701	8840
1	2734	8841
1	2758	8842
1	2787	8843
1	2807	8844
1	2813	8845
1	2809	8846
1	2798	8847
1	2776	8848
1	2744	8849
1	2702	8850
1	2653	8851
1	2599	8852
1	2533	8853
1	2457	8854
1	2372	8855
1	2288	8856
1	2201	8857
1	2118	8858
1	2054	8859
1	2000	8860
1	1956	8861
1	1922	8862
1	1904	8863
1	1895	8864
1	1900	8865
1	1908	8866
1	1913	8867
1	1922	8868
1	1922	8869
1	1926	8870
1	1925	8871
1	1926	8872
1	1926	8873
1	1939	8874
1	1946	8875
1	1949	8876
1	1948	8877
1	1945	8878
1	1945	8879
1	1944	8880
1	1948	8881
1	1952	8882
1	1965	8883
1	1974	8884
1	1995	8885
1	2016	8886
1	2043	8887
1	2079	8888
1	2125	8889
1	2157	8890
1	2174	8891
1	2182	8892
1	2170	8893
1	2155	8894
1	2129	8895
1	2097	8896
1	2058	8897
1	2022	8898
1	1975	8899
1	1934	8900
1	1901	8901
1	1883	8902
1	1867	8903
1	1863	8904
1	1861	8905
1	1870	8906
1	1895	8907
1	1919	8908
1	1940	8909
1	1961	8910
1	1974	8911
1	1979	8912
1	1987	8913
1	1982	8914
1	1985	8915
1	1992	8916
1	1995	8917
1	1993	8918
1	1992	8919
1	1976	8920
1	1962	8921
1	1955	8922
1	1953	8923
1	1958	8924
1	1963	8925
1	1972	8926
1	1979	8927
1	1987	8928
1	1986	8929
1	1989	8930
1	1995	8931
1	1998	8932
1	2000	8933
1	2003	8934
1	2000	8935
1	1990	8936
1	1980	8937
1	1980	8938
1	1983	8939
1	1982	8940
1	1991	8941
1	2003	8942
1	2017	8943
1	2027	8944
1	2038	8945
1	2042	8946
1	2050	8947
1	2054	8948
1	2062	8949
1	2061	8950
1	2057	8951
1	2048	8952
1	2037	8953
1	2015	8954
1	1989	8955
1	1965	8956
1	1944	8957
1	1924	8958
1	1907	8959
1	1898	8960
1	1899	8961
1	1911	8962
1	1927	8963
1	1959	8964
1	1994	8965
1	2024	8966
1	2052	8967
1	2077	8968
1	2093	8969
1	2097	8970
1	2094	8971
1	2084	8972
1	2071	8973
1	2052	8974
1	2036	8975
1	2025	8976
1	2016	8977
1	2004	8978
1	2004	8979
1	2000	8980
1	1998	8981
1	2001	8982
1	2011	8983
1	2017	8984
1	2026	8985
1	2032	8986
1	2039	8987
1	2042	8988
1	2039	8989
1	2037	8990
1	2035	8991
1	2037	8992
1	2039	8993
1	2043	8994
1	2040	8995
1	2040	8996
1	2044	8997
1	2052	8998
1	2058	8999
1	2063	9000
1	2061	9001
1	2053	9002
1	2051	9003
1	2041	9004
1	2035	9005
1	2029	9006
1	2024	9007
1	2021	9008
1	2025	9009
1	2025	9010
1	2019	9011
1	2017	9012
1	2019	9013
1	2023	9014
1	2025	9015
1	2030	9016
1	2035	9017
1	2045	9018
1	2044	9019
1	2038	9020
1	2026	9021
1	2015	9022
1	2012	9023
1	2025	9024
1	2030	9025
1	2039	9026
1	2043	9027
1	2051	9028
1	2061	9029
1	2075	9030
1	2081	9031
1	2084	9032
1	2090	9033
1	2084	9034
1	2084	9035
1	2086	9036
1	2090	9037
1	2094	9038
1	2106	9039
1	2114	9060
1	2115	9061
1	2132	9062
1	2145	9063
1	2147	9064
1	2152	9065
1	2148	9066
1	2140	9067
1	2131	9068
1	2120	9069
1	2106	9070
1	2089	9071
1	2075	9072
1	2061	9073
1	2053	9074
1	2052	9075
1	2053	9076
1	2052	9077
1	2057	9078
1	2056	9079
1	2052	9060
1	2050	9061
1	2040	9062
1	2033	9063
1	2022	9064
1	2024	9065
1	2027	9066
1	2037	9067
1	2043	9068
1	2052	9069
1	2044	9070
1	2042	9071
1	2047	9072
1	2052	9073
1	2057	9074
1	2056	9075
1	2052	9076
1	2040	9077
1	2026	9078
1	2008	9079
1	1996	9080
1	1988	9081
1	1983	9082
1	1978	9083
1	1983	9084
1	1982	9085
1	1989	9086
1	1996	9087
1	2007	9088
1	2024	9089
1	2035	9090
1	2041	9091
1	2040	9092
1	2034	9093
1	2025	9094
1	2024	9095
1	2018	9096
1	2012	9097
1	2000	9098
1	2000	9099
1	1984	9100
1	1967	9101
1	1948	9102
1	1926	9103
1	1917	9104
1	1908	9105
1	1901	9106
1	1898	9107
1	1895	9108
1	1894	9109
1	1887	9110
1	1878	9111
1	1868	9112
1	1854	9113
1	1854	9114
1	1843	9115
1	1832	9116
1	1817	9117
1	1802	9118
1	1791	9119
1	1729	9160
1	1729	9161
1	1735	9162
1	1738	9163
1	1742	9164
1	1754	9165
1	1765	9166
1	1775	9167
1	1787	9168
1	1790	9169
1	1800	9170
1	1817	9171
1	1825	9172
1	1820	9173
1	1823	9174
1	1814	9175
1	1796	9176
1	1783	9177
1	1770	9178
1	1764	9179
1	1778	9120
1	1773	9121
1	1769	9122
1	1775	9123
1	1773	9124
1	1775	9125
1	1787	9126
1	1802	9127
1	1821	9128
1	1854	9129
1	1870	9130
1	1893	9131
1	1908	9132
1	1921	9133
1	1926	9134
1	1926	9135
1	1922	9136
1	1909	9137
1	1895	9138
1	1874	9139
1	1854	9140
1	1824	9141
1	1793	9142
1	1767	9143
1	1749	9144
1	1736	9145
1	1731	9146
1	1730	9147
1	1737	9148
1	1739	9149
1	1746	9150
1	1753	9151
1	1760	9152
1	1764	9153
1	1755	9154
1	1746	9155
1	1737	9156
1	1726	9157
1	1718	9158
1	1728	9159
1	1762	9180
1	1757	9181
1	1752	9182
1	1751	9183
1	1742	9184
1	1746	9185
1	1759	9186
1	1778	9187
1	1796	9188
1	1835	9189
1	1857	9190
1	1872	9191
1	1881	9192
1	1878	9193
1	1869	9194
1	1853	9195
1	1831	9196
1	1799	9197
1	1764	9198
1	1738	9199
1	1721	9200
1	1703	9201
1	1687	9202
1	1679	9203
1	1686	9204
1	1694	9205
1	1711	9206
1	1729	9207
1	1747	9208
1	1764	9209
1	1783	9210
1	1793	9211
1	1800	9212
1	1802	9213
1	1800	9214
1	1801	9215
1	1796	9216
1	1796	9217
1	1796	9218
1	1813	9219
1	1802	9220
1	1795	9221
1	1786	9222
1	1773	9223
1	1763	9224
1	1751	9225
1	1743	9226
1	1740	9227
1	1741	9228
1	1737	9229
1	1731	9230
1	1730	9231
1	1725	9232
1	1715	9233
1	1726	9234
1	1728	9235
1	1728	9236
1	1730	9237
1	1736	9238
1	1740	9239
1	1741	9240
1	1746	9241
1	1751	9242
1	1753	9243
1	1757	9244
1	1762	9245
1	1764	9246
1	1768	9247
1	1769	9248
1	1769	9249
1	1764	9250
1	1759	9251
1	1752	9252
1	1756	9253
1	1755	9254
1	1756	9255
1	1757	9256
1	1757	9257
1	1763	9258
1	1762	9259
1	1764	9260
1	1768	9261
1	1771	9262
1	1768	9263
1	1774	9264
1	1774	9265
1	1769	9266
1	1769	9267
1	1764	9268
1	1762	9269
1	1755	9270
1	1752	9271
1	1751	9272
1	1746	9273
1	1740	9274
1	1734	9275
1	1726	9276
1	1721	9277
1	1711	9278
1	1712	9279
1	1708	9280
1	1708	9281
1	1709	9282
1	1713	9283
1	1729	9284
1	1746	9285
1	1765	9286
1	1790	9287
1	1809	9288
1	1822	9289
1	1836	9290
1	1845	9291
1	1852	9292
1	1855	9293
1	1869	9294
1	1863	9295
1	1843	9296
1	1816	9297
1	1777	9298
1	1757	9299
1	1730	9300
1	1704	9301
1	1686	9302
1	1678	9303
1	1670	9304
1	1675	9305
1	1687	9306
1	1698	9307
1	1706	9308
1	1728	9309
1	1739	9310
1	1747	9311
1	1751	9312
1	1751	9313
1	1744	9314
1	1738	9315
1	1737	9316
1	1733	9317
1	1736	9318
1	1732	9319
1	1735	9320
1	1736	9321
1	1738	9322
1	1738	9323
1	1751	9324
1	1751	9325
1	1749	9326
1	1744	9327
1	1737	9328
1	1724	9329
1	1712	9330
1	1705	9331
1	1701	9332
1	1701	9333
1	1703	9334
1	1705	9335
1	1709	9336
1	1710	9337
1	1713	9338
1	1729	9339
1	1739	9340
1	1738	9341
1	1737	9342
1	1718	9343
1	1703	9344
1	1697	9345
1	1700	9346
1	1702	9347
1	1705	9348
1	1712	9349
1	1728	9350
1	1747	9351
1	1763	9352
1	1764	9353
1	1769	9354
1	1764	9355
1	1755	9356
1	1746	9357
1	1739	9358
1	1729	9359
1	1719	9360
1	1715	9361
1	1712	9362
1	1712	9363
1	1710	9364
1	1710	9365
1	1715	9366
1	1727	9367
1	1741	9368
1	1778	9369
1	1798	9370
1	1817	9371
1	1821	9372
1	1818	9373
1	1809	9374
1	1786	9375
1	1764	9376
1	1741	9377
1	1720	9378
1	1697	9379
1	1682	9380
1	1674	9381
1	1674	9382
1	1674	9383
1	1699	9384
1	1712	9385
1	1727	9386
1	1733	9387
1	1730	9388
1	1718	9389
1	1708	9390
1	1700	9391
1	1701	9392
1	1712	9393
1	1726	9394
1	1736	9395
1	1740	9396
1	1735	9397
1	1723	9398
1	1731	9399
1	1721	9400
1	1710	9401
1	1695	9402
1	1684	9403
1	1679	9404
1	1675	9405
1	1677	9406
1	1679	9407
1	1685	9408
1	1686	9409
1	1686	9410
1	1690	9411
1	1692	9412
1	1686	9413
1	1691	9414
1	1682	9415
1	1675	9416
1	1669	9417
1	1662	9418
1	1660	9419
1	1656	9420
1	1659	9421
1	1663	9422
1	1665	9423
1	1661	9424
1	1660	9425
1	1660	9426
1	1665	9427
1	1672	9428
1	1697	9429
1	1710	9430
1	1720	9431
1	1731	9432
1	1741	9433
1	1754	9434
1	1764	9435
1	1773	9436
1	1785	9437
1	1788	9438
1	1776	9439
1	1764	9440
1	1755	9441
1	1742	9442
1	1738	9443
1	1738	9444
1	1737	9445
1	1726	9446
1	1717	9447
1	1715	9448
1	1711	9449
1	1708	9450
1	1709	9451
1	1713	9452
1	1724	9453
1	1727	9454
1	1727	9455
1	1725	9456
1	1722	9457
1	1709	9458
1	1713	9459
1	1705	9460
1	1696	9461
1	1684	9462
1	1670	9463
1	1656	9464
1	1645	9465
1	1644	9466
1	1649	9467
1	1660	9468
1	1671	9469
1	1682	9470
1	1691	9471
1	1699	9472
1	1698	9473
1	1713	9474
1	1713	9475
1	1712	9476
1	1706	9477
1	1693	9478
1	1674	9479
1	1656	9480
1	1639	9481
1	1634	9482
1	1634	9483
1	1635	9484
1	1638	9485
1	1638	9486
1	1643	9487
1	1638	9488
1	1658	9489
1	1661	9490
1	1670	9491
1	1679	9492
1	1686	9493
1	1691	9494
1	1697	9495
1	1699	9496
1	1695	9497
1	1681	9498
1	1669	9499
1	1656	9500
1	1640	9501
1	1625	9502
1	1612	9503
1	1629	9504
1	1636	9505
1	1647	9506
1	1659	9507
1	1674	9508
1	1687	9509
1	1698	9510
1	1709	9511
1	1712	9512
1	1712	9513
1	1710	9514
1	1711	9515
1	1710	9516
1	1699	9517
1	1686	9518
1	1703	9519
1	1618	9540
1	1625	9541
1	1638	9542
1	1652	9543
1	1662	9544
1	1683	9545
1	1687	9546
1	1689	9547
1	1686	9548
1	1690	9549
1	1688	9550
1	1681	9551
1	1667	9552
1	1660	9553
1	1646	9554
1	1629	9555
1	1611	9556
1	1602	9557
1	1593	9558
1	1592	9559
1	1709	9540
1	1708	9541
1	1704	9542
1	1697	9543
1	1686	9544
1	1674	9545
1	1662	9546
1	1657	9547
1	1652	9548
1	1647	9549
1	1647	9550
1	1647	9551
1	1646	9552
1	1638	9553
1	1647	9554
1	1647	9555
1	1646	9556
1	1638	9557
1	1629	9558
1	1620	9559
1	1605	9560
1	1629	9561
1	1651	9562
1	1668	9563
1	1699	9564
1	1712	9565
1	1718	9566
1	1721	9567
1	1724	9568
1	1729	9569
1	1740	9570
1	1751	9571
1	1760	9572
1	1769	9573
1	1770	9574
1	1769	9575
1	1764	9576
1	1751	9577
1	1734	9578
1	1726	9579
1	1710	9580
1	1690	9581
1	1679	9582
1	1667	9583
1	1657	9584
1	1646	9585
1	1638	9586
1	1639	9587
1	1649	9588
1	1660	9589
1	1675	9590
1	1694	9591
1	1708	9592
1	1712	9593
1	1719	9594
1	1716	9595
1	1712	9596
1	1700	9597
1	1686	9598
1	1672	9599
1	1660	9600
1	1647	9601
1	1642	9602
1	1636	9603
1	1634	9604
1	1642	9605
1	1655	9606
1	1672	9607
1	1690	9608
1	1713	9609
1	1726	9610
1	1733	9611
1	1737	9612
1	1734	9613
1	1725	9614
1	1715	9615
1	1709	9616
1	1700	9617
1	1689	9618
1	1674	9619
1	1660	9620
1	1652	9621
1	1652	9622
1	1657	9623
1	1667	9624
1	1672	9625
1	1680	9626
1	1687	9627
1	1694	9628
1	1694	9629
1	1691	9630
1	1687	9631
1	1683	9632
1	1672	9633
1	1657	9634
1	1644	9635
1	1628	9636
1	1610	9637
1	1594	9638
1	1592	9639
1	1581	9640
1	1570	9641
1	1571	9642
1	1568	9643
1	1562	9644
1	1555	9645
1	1548	9646
1	1548	9647
1	1555	9648
1	1572	9649
1	1597	9650
1	1616	9651
1	1631	9652
1	1634	9653
1	1635	9654
1	1634	9655
1	1634	9656
1	1638	9657
1	1649	9658
1	1652	9659
1	1660	9660
1	1668	9661
1	1679	9662
1	1686	9663
1	1677	9664
1	1664	9665
1	1652	9666
1	1635	9667
1	1620	9668
1	1611	9669
1	1596	9670
1	1581	9671
1	1572	9672
1	1567	9673
1	1571	9674
1	1580	9675
1	1582	9676
1	1582	9677
1	1581	9678
1	1573	9679
1	1574	9680
1	1580	9681
1	1587	9682
1	1591	9683
1	1607	9684
1	1616	9685
1	1629	9686
1	1643	9687
1	1659	9688
1	1672	9689
1	1686	9690
1	1692	9691
1	1687	9692
1	1670	9693
1	1643	9694
1	1616	9695
1	1595	9696
1	1574	9697
1	1569	9698
1	1584	9699
1	1607	9700
1	1633	9701
1	1661	9702
1	1693	9703
1	1724	9704
1	1757	9705
1	1788	9706
1	1817	9707
1	1844	9708
1	1867	9709
1	1895	9710
1	1936	9711
1	1975	9712
1	2017	9713
1	2064	9714
1	2104	9715
1	2135	9716
1	2170	9717
1	2209	9718
1	2253	9719
1	2289	9720
1	2327	9721
1	2361	9722
1	2390	9723
1	2410	9724
1	2425	9725
1	2423	9726
1	2410	9727
1	2384	9728
1	2354	9729
1	2305	9730
1	2242	9731
1	2175	9732
1	2113	9733
1	2052	9734
1	1996	9735
1	1945	9736
1	1895	9737
1	1843	9738
1	1791	9739
1	1746	9740
1	1699	9741
1	1648	9742
1	1605	9743
1	1568	9744
1	1532	9745
1	1507	9746
1	1481	9747
1	1463	9748
1	1451	9749
1	1450	9750
1	1452	9751
1	1454	9752
1	1458	9753
1	1472	9754
1	1485	9755
1	1498	9756
1	1508	9757
1	1521	9758
1	1533	9759
1	1607	9780
1	1609	9781
1	1616	9782
1	1622	9783
1	1618	9784
1	1611	9785
1	1607	9786
1	1605	9787
1	1604	9788
1	1610	9789
1	1608	9790
1	1602	9791
1	1582	9792
1	1567	9793
1	1555	9794
1	1546	9795
1	1537	9796
1	1523	9797
1	1520	9798
1	1524	9799
1	1546	9760
1	1565	9761
1	1574	9762
1	1576	9763
1	1571	9764
1	1566	9765
1	1566	9766
1	1570	9767
1	1572	9768
1	1569	9769
1	1572	9770
1	1577	9771
1	1581	9772
1	1581	9773
1	1584	9774
1	1581	9775
1	1581	9776
1	1587	9777
1	1594	9778
1	1605	9779
1	1533	9800
1	1542	9801
1	1551	9802
1	1562	9803
1	1590	9804
1	1613	9805
1	1643	9806
1	1674	9807
1	1700	9808
1	1725	9809
1	1737	9810
1	1737	9811
1	1727	9812
1	1704	9813
1	1672	9814
1	1638	9815
1	1603	9816
1	1564	9817
1	1531	9818
1	1504	9819
1	1490	9820
1	1485	9821
1	1490	9822
1	1503	9823
1	1525	9824
1	1541	9825
1	1561	9826
1	1584	9827
1	1605	9828
1	1611	9829
1	1617	9830
1	1625	9831
1	1633	9832
1	1636	9833
1	1639	9834
1	1634	9835
1	1623	9836
1	1609	9837
1	1594	9838
1	1581	9839
1	1572	9840
1	1557	9841
1	1542	9842
1	1529	9843
1	1521	9844
1	1520	9845
1	1531	9846
1	1548	9847
1	1567	9848
1	1581	9849
1	1593	9850
1	1603	9851
1	1609	9852
1	1622	9853
1	1623	9854
1	1620	9855
1	1610	9856
1	1605	9857
1	1600	9858
1	1594	9859
1	1593	9860
1	1594	9861
1	1589	9862
1	1582	9863
1	1584	9864
1	1584	9865
1	1593	9866
1	1607	9867
1	1621	9868
1	1634	9869
1	1642	9870
1	1646	9871
1	1647	9872
1	1647	9873
1	1648	9874
1	1656	9875
1	1667	9876
1	1675	9877
1	1679	9878
1	1685	9879
1	1686	9880
1	1690	9881
1	1701	9882
1	1715	9883
1	1728	9884
1	1737	9885
1	1737	9886
1	1732	9887
1	1726	9888
1	1716	9889
1	1708	9890
1	1701	9891
1	1691	9892
1	1679	9893
1	1670	9894
1	1658	9895
1	1647	9896
1	1633	9897
1	1618	9898
1	1607	9899
1	1600	9900
1	1594	9901
1	1594	9902
1	1599	9903
1	1610	9904
1	1634	9905
1	1661	9906
1	1692	9907
1	1716	9908
1	1741	9909
1	1754	9910
1	1764	9911
1	1775	9912
1	1775	9913
1	1769	9914
1	1762	9915
1	1751	9916
1	1738	9917
1	1731	9918
1	1719	9919
1	1720	9920
1	1722	9921
1	1725	9922
1	1730	9923
1	1741	9924
1	1741	9925
1	1735	9926
1	1721	9927
1	1702	9928
1	1683	9929
1	1660	9930
1	1636	9931
1	1629	9932
1	1623	9933
1	1620	9934
1	1624	9935
1	1626	9936
1	1634	9937
1	1641	9938
1	1660	9939
1	1674	9940
1	1686	9941
1	1711	9942
1	1724	9943
1	1733	9944
1	1743	9945
1	1752	9946
1	1753	9947
1	1750	9948
1	1738	9949
1	1725	9950
1	1711	9951
1	1697	9952
1	1683	9953
1	1670	9954
1	1657	9955
1	1641	9956
1	1634	9957
1	1634	9958
1	1634	9959
1	1634	9960
1	1634	9961
1	1638	9962
1	1646	9963
1	1647	9964
1	1656	9965
1	1662	9966
1	1673	9967
1	1685	9968
1	1699	9969
1	1701	9970
1	1699	9971
1	1694	9972
1	1687	9973
1	1679	9974
1	1668	9975
1	1658	9976
1	1647	9977
1	1634	9978
1	1625	9979
1	1620	9980
1	1620	9981
1	1625	9982
1	1631	9983
1	1638	9984
1	1647	9985
1	1652	9986
1	1654	9987
1	1643	9988
1	1626	9989
1	1604	9990
1	1581	9991
1	1557	9992
1	1539	9993
1	1518	9994
1	1500	9995
1	1485	9996
1	1468	9997
1	1453	9998
1	1450	9999
1	1446	10000
1	1449	10001
1	1452	10002
1	1459	10003
1	1467	10004
1	1476	10005
1	1490	10006
1	1504	10007
1	1519	10008
1	1526	10009
1	1537	10010
1	1553	10011
1	1566	10012
1	1572	10013
1	1577	10014
1	1571	10015
1	1564	10016
1	1555	10017
1	1547	10018
1	1529	10019
1	1513	10020
1	1499	10021
1	1481	10022
1	1467	10023
1	1450	10024
1	1438	10025
1	1427	10026
1	1419	10027
1	1417	10028
1	1423	10029
1	1421	10030
1	1411	10031
1	1398	10032
1	1382	10033
1	1372	10034
1	1359	10035
1	1350	10036
1	1345	10037
1	1341	10038
1	1332	10039
1	1332	10040
1	1340	10041
1	1346	10042
1	1360	10043
1	1377	10044
1	1402	10045
1	1436	10046
1	1471	10047
1	1514	10048
1	1553	10049
1	1582	10050
1	1607	10051
1	1618	10052
1	1621	10053
1	1607	10054
1	1595	10055
1	1582	10056
1	1563	10057
1	1542	10058
1	1521	10059
1	1493	10060
1	1467	10061
1	1447	10062
1	1430	10063
1	1421	10064
1	1422	10065
1	1424	10066
1	1425	10067
1	1436	10068
1	1438	10069
1	1441	10070
1	1441	10071
1	1440	10072
1	1437	10073
1	1441	10074
1	1444	10075
1	1449	10076
1	1454	10077
1	1465	10078
1	1479	10079
1	1502	10080
1	1517	10081
1	1530	10082
1	1534	10083
1	1529	10084
1	1530	10085
1	1531	10086
1	1533	10087
1	1534	10088
1	1535	10089
1	1531	10090
1	1519	10091
1	1497	10092
1	1476	10093
1	1453	10094
1	1445	10095
1	1438	10096
1	1430	10097
1	1424	10098
1	1415	10099
1	1410	10100
1	1411	10101
1	1414	10102
1	1423	10103
1	1435	10104
1	1445	10105
1	1458	10106
1	1468	10107
1	1478	10108
1	1492	10109
1	1507	10110
1	1524	10111
1	1535	10112
1	1543	10113
1	1541	10114
1	1533	10115
1	1526	10116
1	1513	10117
1	1502	10118
1	1495	10119
1	1486	10120
1	1481	10121
1	1478	10122
1	1481	10123
1	1486	10124
1	1494	10125
1	1502	10126
1	1510	10127
1	1518	10128
1	1516	10129
1	1512	10130
