#Date:= 2024-10-08T15:54:33.615823
#Sampling Rate(Hz):= 1000
#Labels:= LOD	ECG	TS
1	1687	20
1	1716	21
1	1751	22
1	1800	23
1	1832	24
1	1868	25
1	1879	26
1	1867	27
1	1843	28
1	1791	29
1	1728	30
1	1665	31
1	1611	32
1	1595	33
1	1724	34
1	1742	35
1	1764	36
1	1790	37
1	1811	38
1	1823	39
1	1824	40
1	1823	41
1	1828	42
1	1827	43
1	1825	44
1	1814	45
1	1787	46
1	1749	47
1	1697	48
1	1656	49
1	1623	50
1	1618	51
1	1649	52
1	1700	53
1	1756	54
1	1817	55
1	1861	56
1	1896	57
1	1922	58
1	1940	59
1	1958	80
1	1976	81
1	2000	82
1	2013	83
1	2026	84
1	2013	85
1	1985	86
1	1939	87
1	1871	88
1	1799	89
1	1737	90
1	1683	91
1	1657	92
1	1651	93
1	1664	94
1	1698	95
1	1740	96
1	1788	97
1	1838	98
1	1881	99
1	1913	80
1	1942	81
1	1974	82
1	1998	83
1	2000	84
1	1989	85
1	1959	86
1	1918	87
1	1851	88
1	1803	89
1	1755	90
1	1713	91
1	1700	92
1	1701	93
1	1723	94
1	1755	95
1	1791	96
1	1827	97
1	1844	98
1	1851	99
1	1851	100
1	1856	101
1	1877	102
1	1895	103
1	1907	104
1	1899	105
1	1875	106
1	1850	107
1	1814	108
1	1777	109
1	1736	110
1	1701	111
1	1697	112
1	1712	113
1	1739	114
1	1782	115
1	1825	116
1	1858	117
1	1886	118
1	1909	119
1	1931	120
1	1949	121
1	1970	122
1	1975	123
1	1972	124
1	1940	125
1	1890	126
1	1829	127
1	1752	128
1	1676	129
1	1602	130
1	1544	131
1	1518	132
1	1518	133
1	1539	134
1	1581	135
1	1626	136
1	1680	137
1	1721	138
1	1760	139
1	1780	140
1	1791	141
1	1811	142
1	1823	143
1	1827	144
1	1814	145
1	1778	146
1	1741	147
1	1690	148
1	1629	149
1	1577	150
1	1530	151
1	1514	152
1	1524	153
1	1543	154
1	1572	155
1	1607	156
1	1634	157
1	1659	158
1	1676	159
1	1683	160
1	1680	161
1	1690	162
1	1708	163
1	1716	164
1	1716	165
1	1706	166
1	1686	167
1	1652	168
1	1625	169
1	1593	170
1	1571	171
1	1573	172
1	1586	173
1	1607	174
1	1631	175
1	1652	176
1	1680	177
1	1699	178
1	1705	179
1	1639	200
1	1672	201
1	1707	202
1	1728	203
1	1728	204
1	1703	205
1	1660	206
1	1607	207
1	1544	208
1	1479	209
1	1432	210
1	1398	211
1	1398	212
1	1414	213
1	1453	214
1	1501	215
1	1555	216
1	1607	217
1	1650	218
1	1686	219
1	1712	180
1	1728	181
1	1752	182
1	1770	183
1	1782	184
1	1762	185
1	1723	186
1	1665	187
1	1598	188
1	1530	189
1	1465	190
1	1413	191
1	1384	192
1	1384	193
1	1403	194
1	1437	195
1	1476	196
1	1518	197
1	1556	198
1	1607	199
1	1712	220
1	1729	221
1	1751	222
1	1764	223
1	1756	224
1	1729	225
1	1686	226
1	1637	227
1	1583	228
1	1544	229
1	1503	230
1	1476	231
1	1474	232
1	1490	233
1	1520	234
1	1557	235
1	1593	236
1	1634	237
1	1670	238
1	1702	239
1	1722	240
1	1738	241
1	1764	242
1	1801	243
1	1824	244
1	1823	245
1	1811	246
1	1780	247
1	1721	248
1	1657	249
1	1586	250
1	1531	251
1	1503	252
1	1488	253
1	1480	254
1	1485	255
1	1498	256
1	1515	257
1	1539	258
1	1567	259
1	1590	260
1	1616	261
1	1652	262
1	1693	263
1	1729	264
1	1747	265
1	1747	266
1	1729	267
1	1687	268
1	1624	269
1	1562	270
1	1512	271
1	1494	272
1	1499	273
1	1521	274
1	1549	275
1	1583	276
1	1620	277
1	1657	278
1	1695	279
1	1728	280
1	1751	281
1	1782	282
1	1798	283
1	1791	284
1	1765	285
1	1728	286
1	1688	287
1	1638	288
1	1598	289
1	1556	290
1	1530	291
1	1529	292
1	1546	293
1	1578	294
1	1609	295
1	1647	296
1	1679	297
1	1698	298
1	1699	299
1	1703	300
1	1708	301
1	1724	302
1	1740	303
1	1763	304
1	1757	305
1	1733	306
1	1688	307
1	1634	308
1	1580	309
1	1537	310
1	1512	311
1	1516	312
1	1543	313
1	1581	314
1	1620	315
1	1650	316
1	1674	317
1	1688	318
1	1710	319
1	1724	320
1	1739	321
1	1767	322
1	1793	323
1	1818	324
1	1834	325
1	1825	326
1	1791	327
1	1741	328
1	1672	329
1	1597	330
1	1525	331
1	1476	332
1	1459	333
1	1467	334
1	1490	335
1	1520	336
1	1557	337
1	1593	338
1	1612	339
1	1642	340
1	1670	341
1	1701	342
1	1738	343
1	1760	344
1	1764	345
1	1744	346
1	1710	347
1	1660	348
1	1598	349
1	1547	350
1	1512	351
1	1527	352
1	1557	353
1	1605	354
1	1652	355
1	1698	356
1	1736	357
1	1757	358
1	1764	359
1	1746	380
1	1767	381
1	1799	382
1	1830	383
1	1844	384
1	1843	385
1	1818	386
1	1773	387
1	1719	388
1	1659	389
1	1598	390
1	1544	391
1	1516	392
1	1505	393
1	1526	394
1	1551	395
1	1584	396
1	1625	397
1	1665	398
1	1710	399
1	1764	360
1	1757	361
1	1757	362
1	1760	363
1	1764	364
1	1744	365
1	1710	366
1	1671	367
1	1628	368
1	1584	369
1	1542	370
1	1514	371
1	1513	372
1	1536	373
1	1557	374
1	1593	375
1	1622	376
1	1655	377
1	1686	378
1	1723	379
1	1741	400
1	1768	401
1	1798	402
1	1817	403
1	1798	404
1	1762	405
1	1710	406
1	1648	407
1	1585	408
1	1530	409
1	1477	410
1	1444	411
1	1437	412
1	1450	413
1	1478	414
1	1520	415
1	1562	416
1	1601	417
1	1631	418
1	1643	419
1	1660	420
1	1676	421
1	1698	422
1	1711	423
1	1719	424
1	1709	425
1	1674	426
1	1620	427
1	1555	428
1	1493	429
1	1445	430
1	1413	431
1	1417	432
1	1449	433
1	1491	434
1	1555	435
1	1611	436
1	1670	437
1	1725	438
1	1774	439
1	1813	440
1	1840	441
1	1883	442
1	1923	443
1	1958	444
1	1973	445
1	1955	446
1	1917	447
1	1854	448
1	1770	449
1	1698	450
1	1636	451
1	1602	452
1	1593	453
1	1600	454
1	1623	455
1	1660	456
1	1692	457
1	1720	458
1	1744	459
1	1760	460
1	1775	461
1	1800	462
1	1825	463
1	1827	464
1	1822	465
1	1803	466
1	1780	467
1	1737	468
1	1692	469
1	1634	470
1	1580	471
1	1552	472
1	1544	473
1	1558	474
1	1584	475
1	1613	476
1	1645	477
1	1673	478
1	1686	479
1	1698	480
1	1712	481
1	1734	482
1	1760	483
1	1782	484
1	1775	485
1	1741	486
1	1697	487
1	1640	488
1	1581	489
1	1526	490
1	1487	491
1	1490	492
1	1524	493
1	1557	494
1	1598	495
1	1631	496
1	1652	497
1	1669	498
1	1688	499
1	1692	500
1	1697	501
1	1715	502
1	1738	503
1	1759	504
1	1769	505
1	1757	506
1	1736	507
1	1701	508
1	1660	509
1	1628	510
1	1602	511
1	1603	512
1	1621	513
1	1654	514
1	1686	515
1	1718	516
1	1742	517
1	1755	518
1	1754	519
1	1742	520
1	1720	521
1	1712	522
1	1699	523
1	1676	524
1	1646	525
1	1602	526
1	1554	527
1	1503	528
1	1467	529
1	1436	530
1	1424	531
1	1443	532
1	1477	533
1	1530	534
1	1598	535
1	1656	536
1	1721	537
1	1773	538
1	1814	539
1	1822	540
1	1822	541
1	1821	542
1	1825	543
1	1816	544
1	1782	545
1	1738	546
1	1692	547
1	1633	548
1	1567	549
1	1503	550
1	1458	551
1	1451	552
1	1471	553
1	1494	554
1	1533	555
1	1581	556
1	1628	557
1	1672	558
1	1713	559
1	1832	580
1	1825	581
1	1818	582
1	1800	583
1	1762	584
1	1713	585
1	1655	586
1	1587	587
1	1516	588
1	1456	589
1	1407	590
1	1380	591
1	1398	592
1	1433	593
1	1485	594
1	1542	595
1	1602	596
1	1652	597
1	1690	598
1	1712	599
1	1738	600
1	1764	601
1	1812	602
1	1849	603
1	1890	604
1	1899	605
1	1895	606
1	1883	607
1	1861	608
1	1836	609
1	1800	610
1	1772	611
1	1764	612
1	1786	613
1	1823	614
1	1857	615
1	1885	616
1	1908	617
1	1926	618
1	1949	619
1	1746	560
1	1777	561
1	1817	562
1	1843	563
1	1853	564
1	1843	565
1	1818	566
1	1776	567
1	1721	568
1	1660	569
1	1605	570
1	1556	571
1	1550	572
1	1577	573
1	1626	574
1	1677	575
1	1727	576
1	1765	577
1	1802	578
1	1827	579
1	1963	620
1	1978	621
1	2007	622
1	2030	623
1	2049	624
1	2039	625
1	2009	626
1	1971	627
1	1914	628
1	1854	629
1	1791	630
1	1738	631
1	1712	632
1	1708	633
1	1719	634
1	1738	635
1	1754	636
1	1780	637
1	1791	638
1	1791	639
1	1778	640
1	1762	641
1	1754	642
1	1747	643
1	1737	644
1	1712	645
1	1681	646
1	1638	647
1	1589	648
1	1535	649
1	1488	650
1	1464	651
1	1481	652
1	1513	653
1	1553	654
1	1594	655
1	1638	656
1	1683	657
1	1723	658
1	1751	659
1	1737	680
1	1737	681
1	1742	682
1	1746	683
1	1743	684
1	1725	685
1	1692	686
1	1656	687
1	1607	688
1	1551	689
1	1503	690
1	1479	691
1	1482	692
1	1507	693
1	1544	694
1	1579	695
1	1607	696
1	1634	697
1	1660	698
1	1681	699
1	1773	660
1	1795	661
1	1828	662
1	1845	663
1	1856	664
1	1839	665
1	1801	666
1	1763	667
1	1712	668
1	1664	669
1	1623	670
1	1602	671
1	1607	672
1	1629	673
1	1644	674
1	1662	675
1	1678	676
1	1691	677
1	1710	678
1	1729	679
1	1699	700
1	1712	701
1	1736	702
1	1753	703
1	1754	704
1	1742	705
1	1714	706
1	1686	707
1	1644	708
1	1607	709
1	1574	710
1	1563	711
1	1579	712
1	1600	713
1	1629	714
1	1665	715
1	1705	716
1	1738	717
1	1762	718
1	1764	719
1	1767	720
1	1768	721
1	1779	722
1	1791	723
1	1794	724
1	1778	725
1	1749	726
1	1708	727
1	1655	728
1	1598	729
1	1549	730
1	1520	731
1	1525	732
1	1548	733
1	1580	734
1	1620	735
1	1652	736
1	1684	737
1	1699	738
1	1710	739
1	1808	760
1	1811	761
1	1821	762
1	1830	763
1	1823	764
1	1809	765
1	1769	766
1	1724	767
1	1667	768
1	1616	769
1	1561	770
1	1520	771
1	1505	772
1	1510	773
1	1532	774
1	1577	775
1	1625	776
1	1665	777
1	1698	778
1	1715	779
1	1705	740
1	1701	741
1	1715	742
1	1737	743
1	1755	744
1	1764	745
1	1764	746
1	1749	747
1	1717	748
1	1679	749
1	1644	750
1	1620	751
1	1622	752
1	1638	753
1	1673	754
1	1708	755
1	1751	756
1	1782	757
1	1800	758
1	1809	759
1	1734	780
1	1753	781
1	1785	782
1	1816	783
1	1841	784
1	1843	785
1	1827	786
1	1792	787
1	1741	788
1	1673	789
1	1605	790
1	1545	791
1	1528	792
1	1539	793
1	1570	794
1	1619	795
1	1674	796
1	1728	797
1	1778	798
1	1836	799
1	1875	800
1	1909	801
1	1944	802
1	1971	803
1	1991	804
1	1993	805
1	1967	806
1	1923	807
1	1860	808
1	1782	809
1	1713	810
1	1664	811
1	1647	812
1	1647	813
1	1674	814
1	1707	815
1	1743	816
1	1787	817
1	1828	818
1	1860	819
1	1881	820
1	1897	821
1	1922	822
1	1945	823
1	1953	824
1	1950	825
1	1926	826
1	1886	827
1	1838	828
1	1791	829
1	1742	830
1	1701	831
1	1679	832
1	1676	833
1	1699	834
1	1740	835
1	1765	836
1	1803	837
1	1834	838
1	1860	839
1	1878	840
1	1891	841
1	1911	842
1	1922	843
1	1921	844
1	1899	845
1	1877	846
1	1858	847
1	1826	848
1	1788	849
1	1751	850
1	1715	851
1	1710	852
1	1716	853
1	1730	854
1	1762	855
1	1793	856
1	1830	857
1	1852	858
1	1875	859
1	1893	860
1	1908	861
1	1936	862
1	1959	863
1	1964	864
1	1960	865
1	1936	866
1	1905	867
1	1856	868
1	1791	869
1	1736	870
1	1695	871
1	1689	872
1	1707	873
1	1742	874
1	1783	875
1	1830	876
1	1862	877
1	1888	878
1	1903	879
1	1788	900
1	1778	901
1	1782	902
1	1785	903
1	1790	904
1	1780	905
1	1764	906
1	1742	907
1	1705	908
1	1659	909
1	1606	910
1	1556	911
1	1542	912
1	1542	913
1	1551	914
1	1573	915
1	1602	916
1	1622	917
1	1643	918
1	1661	919
1	1913	880
1	1931	881
1	1959	882
1	1986	883
1	2000	884
1	2000	885
1	1970	886
1	1922	887
1	1851	888
1	1786	889
1	1721	890
1	1676	891
1	1661	892
1	1674	893
1	1697	894
1	1730	895
1	1764	896
1	1791	897
1	1803	898
1	1796	899
1	1669	920
1	1675	921
1	1692	922
1	1715	923
1	1741	924
1	1753	925
1	1751	926
1	1736	927
1	1699	928
1	1647	929
1	1594	930
1	1543	931
1	1517	932
1	1513	933
1	1525	934
1	1535	935
1	1548	936
1	1572	937
1	1589	938
1	1616	939
1	1643	940
1	1667	941
1	1690	942
1	1710	943
1	1712	944
1	1696	945
1	1654	946
1	1595	947
1	1529	948
1	1466	949
1	1413	950
1	1381	951
1	1392	952
1	1418	953
1	1464	954
1	1525	955
1	1584	956
1	1638	957
1	1686	958
1	1718	959
1	1738	960
1	1747	961
1	1760	962
1	1763	963
1	1754	964
1	1719	965
1	1668	966
1	1608	967
1	1544	968
1	1487	969
1	1445	970
1	1426	971
1	1445	972
1	1478	973
1	1503	974
1	1542	975
1	1580	976
1	1614	977
1	1645	978
1	1673	979
1	1688	980
1	1698	981
1	1720	982
1	1737	983
1	1744	984
1	1742	985
1	1723	986
1	1692	987
1	1647	988
1	1587	989
1	1537	990
1	1499	991
1	1482	992
1	1490	993
1	1509	994
1	1531	995
1	1557	996
1	1590	997
1	1616	998
1	1634	999
1	1643	1000
1	1644	1001
1	1660	1002
1	1675	1003
1	1681	1004
1	1674	1005
1	1653	1006
1	1624	1007
1	1581	1008
1	1543	1009
1	1502	1010
1	1467	1011
1	1453	1012
1	1463	1013
1	1487	1014
1	1525	1015
1	1561	1016
1	1608	1017
1	1661	1018
1	1703	1019
1	1742	1020
1	1764	1021
1	1793	1022
1	1827	1023
1	1862	1024
1	1873	1025
1	1862	1026
1	1834	1027
1	1778	1028
1	1715	1029
1	1652	1030
1	1598	1031
1	1571	1032
1	1560	1033
1	1556	1034
1	1571	1035
1	1585	1036
1	1609	1037
1	1632	1038
1	1646	1039
1	1724	1060
1	1739	1061
1	1755	1062
1	1754	1063
1	1737	1064
1	1710	1065
1	1674	1066
1	1633	1067
1	1581	1068
1	1536	1069
1	1491	1070
1	1460	1071
1	1459	1072
1	1477	1073
1	1508	1074
1	1551	1075
1	1586	1076
1	1619	1077
1	1639	1078
1	1648	1079
1	1647	1040
1	1646	1041
1	1674	1042
1	1703	1043
1	1726	1044
1	1737	1045
1	1719	1046
1	1682	1047
1	1616	1048
1	1549	1049
1	1481	1050
1	1424	1051
1	1398	1052
1	1398	1053
1	1422	1054
1	1454	1055
1	1513	1056
1	1579	1057
1	1635	1058
1	1688	1059
1	1659	1080
1	1671	1081
1	1701	1082
1	1721	1083
1	1738	1084
1	1729	1085
1	1696	1086
1	1646	1087
1	1580	1088
1	1513	1089
1	1450	1090
1	1398	1091
1	1377	1092
1	1392	1093
1	1410	1094
1	1443	1095
1	1482	1096
1	1530	1097
1	1575	1098
1	1620	1099
1	1651	1100
1	1679	1101
1	1713	1102
1	1744	1103
1	1764	1104
1	1765	1105
1	1750	1106
1	1711	1107
1	1648	1108
1	1574	1109
1	1511	1110
1	1474	1111
1	1466	1112
1	1482	1113
1	1525	1114
1	1576	1115
1	1634	1116
1	1687	1117
1	1733	1118
1	1763	1119
1	1777	1120
1	1776	1121
1	1769	1122
1	1755	1123
1	1724	1124
1	1686	1125
1	1641	1126
1	1590	1127
1	1529	1128
1	1474	1129
1	1422	1130
1	1375	1131
1	1376	1132
1	1411	1133
1	1461	1134
1	1521	1135
1	1561	1136
1	1608	1137
1	1647	1138
1	1677	1139
1	1692	1140
1	1704	1141
1	1723	1142
1	1738	1143
1	1739	1144
1	1725	1145
1	1700	1146
1	1665	1147
1	1615	1148
1	1561	1149
1	1516	1150
1	1479	1151
1	1474	1152
1	1489	1153
1	1511	1154
1	1543	1155
1	1573	1156
1	1603	1157
1	1634	1158
1	1670	1159
1	1697	1160
1	1716	1161
1	1744	1162
1	1764	1163
1	1765	1164
1	1751	1165
1	1712	1166
1	1660	1167
1	1598	1168
1	1529	1169
1	1465	1170
1	1420	1171
1	1413	1172
1	1435	1173
1	1478	1174
1	1541	1175
1	1607	1176
1	1661	1177
1	1711	1178
1	1748	1179
1	1620	1200
1	1654	1201
1	1692	1202
1	1724	1203
1	1750	1204
1	1749	1205
1	1736	1206
1	1711	1207
1	1683	1208
1	1658	1209
1	1634	1210
1	1622	1211
1	1628	1212
1	1646	1213
1	1661	1214
1	1687	1215
1	1712	1216
1	1730	1217
1	1746	1218
1	1749	1219
1	1773	1180
1	1786	1181
1	1798	1182
1	1803	1183
1	1791	1184
1	1764	1185
1	1715	1186
1	1652	1187
1	1577	1188
1	1501	1189
1	1425	1190
1	1372	1191
1	1353	1192
1	1351	1193
1	1368	1194
1	1404	1195
1	1443	1196
1	1487	1197
1	1533	1198
1	1577	1199
1	1736	1220
1	1715	1221
1	1715	1222
1	1710	1223
1	1698	1224
1	1674	1225
1	1644	1226
1	1607	1227
1	1566	1228
1	1523	1229
1	1490	1230
1	1472	1231
1	1482	1232
1	1521	1233
1	1587	1234
1	1658	1235
1	1703	1236
1	1764	1237
1	1802	1238
1	1831	1239
1	1843	1240
1	1841	1241
1	1842	1242
1	1834	1243
1	1814	1244
1	1767	1245
1	1712	1246
1	1645	1247
1	1571	1248
1	1494	1249
1	1426	1250
1	1391	1251
1	1398	1252
1	1424	1253
1	1460	1254
1	1505	1255
1	1558	1256
1	1607	1257
1	1645	1258
1	1670	1259
1	1686	1260
1	1701	1261
1	1729	1262
1	1755	1263
1	1773	1264
1	1757	1265
1	1717	1266
1	1667	1267
1	1607	1268
1	1548	1269
1	1492	1270
1	1441	1271
1	1422	1272
1	1414	1273
1	1418	1274
1	1437	1275
1	1473	1276
1	1513	1277
1	1553	1278
1	1584	1279
1	1598	1280
1	1611	1281
1	1643	1282
1	1672	1283
1	1692	1284
1	1688	1285
1	1658	1286
1	1607	1287
1	1537	1288
1	1462	1289
1	1406	1290
1	1373	1291
1	1377	1292
1	1409	1293
1	1454	1294
1	1507	1295
1	1561	1296
1	1623	1297
1	1684	1298
1	1738	1299
1	1772	1300
1	1790	1301
1	1801	1302
1	1811	1303
1	1791	1304
1	1766	1305
1	1728	1306
1	1688	1307
1	1642	1308
1	1598	1309
1	1552	1310
1	1513	1311
1	1508	1312
1	1529	1313
1	1561	1314
1	1606	1315
1	1644	1316
1	1685	1317
1	1721	1318
1	1751	1319
1	1777	1320
1	1803	1321
1	1834	1322
1	1849	1323
1	1856	1324
1	1837	1325
1	1791	1326
1	1741	1327
1	1675	1328
1	1605	1329
1	1533	1330
1	1476	1331
1	1443	1332
1	1433	1333
1	1437	1334
1	1469	1335
1	1506	1336
1	1544	1337
1	1579	1338
1	1607	1339
1	1631	1340
1	1643	1341
1	1676	1342
1	1698	1343
1	1710	1344
1	1703	1345
1	1679	1346
1	1638	1347
1	1581	1348
1	1519	1349
1	1458	1350
1	1409	1351
1	1384	1352
1	1398	1353
1	1427	1354
1	1460	1355
1	1505	1356
1	1557	1357
1	1607	1358
1	1653	1359
1	1682	1360
1	1691	1361
1	1703	1362
1	1711	1363
1	1710	1364
1	1701	1365
1	1686	1366
1	1669	1367
1	1646	1368
1	1626	1369
1	1607	1370
1	1594	1371
1	1607	1372
1	1636	1373
1	1686	1374
1	1744	1375
1	1815	1376
1	1881	1377
1	1940	1378
1	1980	1379
1	2012	1380
1	2038	1381
1	2074	1382
1	2105	1383
1	2129	1384
1	2111	1385
1	2067	1386
1	2005	1387
1	1925	1388
1	1841	1389
1	1754	1390
1	1690	1391
1	1660	1392
1	1651	1393
1	1659	1394
1	1686	1395
1	1716	1396
1	1748	1397
1	1766	1398
1	1780	1399
1	1783	1400
1	1790	1401
1	1812	1402
1	1831	1403
1	1847	1404
1	1851	1405
1	1836	1406
1	1801	1407
1	1747	1408
1	1682	1409
1	1613	1410
1	1554	1411
1	1516	1412
1	1503	1413
1	1521	1414
1	1544	1415
1	1557	1416
1	1579	1417
1	1590	1418
1	1598	1419
1	1597	1420
1	1594	1421
1	1607	1422
1	1622	1423
1	1630	1424
1	1631	1425
1	1625	1426
1	1619	1427
1	1605	1428
1	1587	1429
1	1558	1430
1	1532	1431
1	1529	1432
1	1534	1433
1	1555	1434
1	1590	1435
1	1616	1436
1	1656	1437
1	1682	1438
1	1701	1439
1	1710	1440
1	1710	1441
1	1717	1442
1	1729	1443
1	1733	1444
1	1715	1445
1	1687	1446
1	1660	1447
1	1625	1448
1	1582	1449
1	1544	1450
1	1512	1451
1	1503	1452
1	1514	1453
1	1530	1454
1	1563	1455
1	1600	1456
1	1634	1457
1	1662	1458
1	1692	1459
1	1708	1460
1	1716	1461
1	1743	1462
1	1764	1463
1	1778	1464
1	1765	1465
1	1741	1466
1	1710	1467
1	1661	1468
1	1607	1469
1	1557	1470
1	1528	1471
1	1517	1472
1	1525	1473
1	1544	1474
1	1567	1475
1	1598	1476
1	1632	1477
1	1656	1478
1	1674	1479
1	1686	1480
1	1697	1481
1	1724	1482
1	1752	1483
1	1764	1484
1	1764	1485
1	1750	1486
1	1729	1487
1	1694	1488
1	1652	1489
1	1598	1490
1	1556	1491
1	1542	1492
1	1549	1493
1	1567	1494
1	1589	1495
1	1613	1496
1	1638	1497
1	1664	1498
1	1686	1499
1	1710	1500
1	1729	1501
1	1754	1502
1	1773	1503
1	1786	1504
1	1777	1505
1	1752	1506
1	1715	1507
1	1665	1508
1	1608	1509
1	1554	1510
1	1513	1511
1	1506	1512
1	1521	1513
1	1537	1514
1	1569	1515
1	1607	1516
1	1643	1517
1	1685	1518
1	1726	1519
1	1753	1520
1	1770	1521
1	1799	1522
1	1824	1523
1	1832	1524
1	1818	1525
1	1788	1526
1	1750	1527
1	1698	1528
1	1633	1529
1	1574	1530
1	1531	1531
1	1521	1532
1	1542	1533
1	1585	1534
1	1644	1535
1	1677	1536
1	1725	1537
1	1754	1538
1	1778	1539
1	1788	1540
1	1786	1541
1	1788	1542
1	1793	1543
1	1795	1544
1	1785	1545
1	1759	1546
1	1721	1547
1	1671	1548
1	1623	1549
1	1585	1550
1	1565	1551
1	1572	1552
1	1602	1553
1	1635	1554
1	1674	1555
1	1713	1556
1	1755	1557
1	1795	1558
1	1832	1559
1	1869	1560
1	1917	1561
1	1962	1562
1	1994	1563
1	2008	1564
1	1991	1565
1	1955	1566
1	1908	1567
1	1843	1568
1	1764	1569
1	1686	1570
1	1608	1571
1	1561	1572
1	1539	1573
1	1528	1574
1	1536	1575
1	1561	1576
1	1603	1577
1	1655	1578
1	1710	1579
1	1852	1600
1	1878	1601
1	1918	1602
1	1952	1603
1	1965	1604
1	1961	1605
1	1935	1606
1	1895	1607
1	1839	1608
1	1777	1609
1	1718	1610
1	1674	1611
1	1661	1612
1	1670	1613
1	1697	1614
1	1734	1615
1	1776	1616
1	1826	1617
1	1869	1618
1	1904	1619
1	1751	1580
1	1790	1581
1	1839	1582
1	1881	1583
1	1919	1584
1	1940	1585
1	1939	1586
1	1924	1587
1	1895	1588
1	1849	1589
1	1799	1590
1	1751	1591
1	1718	1592
1	1702	1593
1	1706	1594
1	1713	1595
1	1733	1596
1	1755	1597
1	1787	1598
1	1821	1599
1	1940	1620
1	1966	1621
1	1998	1622
1	2017	1623
1	2026	1624
1	2004	1625
1	1958	1626
1	1888	1627
1	1799	1628
1	1712	1629
1	1634	1630
1	1581	1631
1	1570	1632
1	1591	1633
1	1629	1634
1	1683	1635
1	1737	1636
1	1791	1637
1	1843	1638
1	1884	1639
1	1777	1660
1	1801	1661
1	1843	1662
1	1878	1663
1	1895	1664
1	1899	1665
1	1881	1666
1	1844	1667
1	1778	1668
1	1723	1669
1	1665	1670
1	1620	1671
1	1599	1672
1	1605	1673
1	1625	1674
1	1652	1675
1	1683	1676
1	1706	1677
1	1720	1678
1	1713	1679
1	1914	1640
1	1935	1641
1	1974	1642
1	1997	1643
1	1998	1644
1	1974	1645
1	1920	1646
1	1855	1647
1	1773	1648
1	1697	1649
1	1636	1650
1	1598	1651
1	1593	1652
1	1611	1653
1	1646	1654
1	1679	1655
1	1710	1656
1	1725	1657
1	1739	1658
1	1757	1659
1	1701	1680
1	1692	1681
1	1702	1682
1	1715	1683
1	1733	1684
1	1737	1685
1	1726	1686
1	1705	1687
1	1661	1688
1	1607	1689
1	1548	1690
1	1498	1691
1	1479	1692
1	1487	1693
1	1503	1694
1	1532	1695
1	1559	1696
1	1587	1697
1	1610	1698
1	1637	1699
1	1647	1700
1	1646	1701
1	1655	1702
1	1650	1703
1	1636	1704
1	1607	1705
1	1570	1706
1	1521	1707
1	1457	1708
1	1384	1709
1	1332	1710
1	1296	1711
1	1298	1712
1	1323	1713
1	1369	1714
1	1417	1715
1	1465	1716
1	1510	1717
1	1555	1718
1	1595	1719
1	1610	1740
1	1618	1741
1	1641	1742
1	1672	1743
1	1708	1744
1	1724	1745
1	1716	1746
1	1690	1747
1	1639	1748
1	1581	1749
1	1529	1750
1	1488	1751
1	1477	1752
1	1482	1753
1	1497	1754
1	1520	1755
1	1554	1756
1	1592	1757
1	1633	1758
1	1661	1759
1	1634	1720
1	1667	1721
1	1706	1722
1	1738	1723
1	1748	1724
1	1746	1725
1	1728	1726
1	1706	1727
1	1673	1728
1	1638	1729
1	1592	1730
1	1552	1731
1	1531	1732
1	1529	1733
1	1533	1734
1	1548	1735
1	1563	1736
1	1585	1737
1	1600	1738
1	1607	1739
1	1689	1760
1	1718	1761
1	1755	1762
1	1786	1763
1	1801	1764
1	1798	1765
1	1775	1766
1	1736	1767
1	1668	1768
1	1581	1769
1	1495	1770
1	1427	1771
1	1394	1772
1	1382	1773
1	1399	1774
1	1422	1775
1	1453	1776
1	1498	1777
1	1540	1778
1	1573	1779
1	1598	1780
1	1618	1781
1	1646	1782
1	1672	1783
1	1690	1784
1	1701	1785
1	1697	1786
1	1679	1787
1	1647	1788
1	1616	1789
1	1575	1790
1	1536	1791
1	1526	1792
1	1529	1793
1	1549	1794
1	1579	1795
1	1612	1796
1	1643	1797
1	1664	1798
1	1683	1799
1	1697	1800
1	1715	1801
1	1746	1802
1	1774	1803
1	1793	1804
1	1784	1805
1	1745	1806
1	1681	1807
1	1594	1808
1	1502	1809
1	1413	1810
1	1338	1811
1	1305	1812
1	1306	1813
1	1332	1814
1	1372	1815
1	1422	1816
1	1463	1817
1	1503	1818
1	1546	1819
1	1584	1820
1	1624	1821
1	1680	1822
1	1730	1823
1	1762	1824
1	1773	1825
1	1764	1826
1	1743	1827
1	1705	1828
1	1654	1829
1	1607	1830
1	1557	1831
1	1535	1832
1	1529	1833
1	1546	1834
1	1571	1835
1	1603	1836
1	1652	1837
1	1699	1838
1	1740	1839
1	1605	1860
1	1624	1861
1	1652	1862
1	1683	1863
1	1713	1864
1	1724	1865
1	1712	1866
1	1687	1867
1	1644	1868
1	1593	1869
1	1540	1870
1	1490	1871
1	1469	1872
1	1468	1873
1	1478	1874
1	1508	1875
1	1548	1876
1	1596	1877
1	1646	1878
1	1688	1879
1	1765	1840
1	1777	1841
1	1788	1842
1	1791	1843
1	1787	1844
1	1764	1845
1	1730	1846
1	1683	1847
1	1616	1848
1	1544	1849
1	1477	1850
1	1423	1851
1	1398	1852
1	1392	1853
1	1398	1854
1	1422	1855
1	1454	1856
1	1503	1857
1	1550	1858
1	1581	1859
1	1706	1880
1	1719	1881
1	1743	1882
1	1765	1883
1	1779	1884
1	1773	1885
1	1746	1886
1	1707	1887
1	1656	1888
1	1590	1889
1	1530	1890
1	1489	1891
1	1477	1892
1	1486	1893
1	1512	1894
1	1539	1895
1	1574	1896
1	1607	1897
1	1636	1898
1	1665	1899
1	1690	1900
1	1705	1901
1	1725	1902
1	1738	1903
1	1733	1904
1	1710	1905
1	1667	1906
1	1620	1907
1	1561	1908
1	1508	1909
1	1453	1910
1	1410	1911
1	1394	1912
1	1395	1913
1	1410	1914
1	1446	1915
1	1495	1916
1	1556	1917
1	1628	1918
1	1686	1919
1	1733	1920
1	1764	1921
1	1802	1922
1	1834	1923
1	1852	1924
1	1843	1925
1	1818	1926
1	1781	1927
1	1726	1928
1	1661	1929
1	1596	1930
1	1542	1931
1	1523	1932
1	1529	1933
1	1543	1934
1	1568	1935
1	1589	1936
1	1616	1937
1	1634	1938
1	1646	1939
1	1643	1940
1	1632	1941
1	1643	1942
1	1654	1943
1	1664	1944
1	1660	1945
1	1638	1946
1	1611	1947
1	1576	1948
1	1524	1949
1	1475	1950
1	1440	1951
1	1447	1952
1	1485	1953
1	1547	1954
1	1611	1955
1	1685	1956
1	1740	1957
1	1791	1958
1	1832	1959
1	1854	1960
1	1860	1961
1	1875	1962
1	1882	1963
1	1868	1964
1	1843	1965
1	1791	1966
1	1737	1967
1	1665	1968
1	1607	1969
1	1551	1970
1	1517	1971
1	1516	1972
1	1536	1973
1	1567	1974
1	1598	1975
1	1629	1976
1	1660	1977
1	1696	1978
1	1724	1979
1	1746	1980
1	1756	1981
1	1775	1982
1	1785	1983
1	1790	1984
1	1769	1985
1	1738	1986
1	1692	1987
1	1639	1988
1	1585	1989
1	1540	1990
1	1504	1991
1	1504	1992
1	1525	1993
1	1548	1994
1	1582	1995
1	1621	1996
1	1656	1997
1	1691	1998
1	1728	1999
1	1752	2000
1	1775	2001
1	1800	2002
1	1817	2003
1	1812	2004
1	1776	2005
1	1725	2006
1	1670	2007
1	1605	2008
1	1525	2009
1	1446	2010
1	1379	2011
1	1351	2012
1	1356	2013
1	1384	2014
1	1429	2015
1	1478	2016
1	1533	2017
1	1591	2018
1	1641	2019
1	1681	2020
1	1710	2021
1	1747	2022
1	1780	2023
1	1795	2024
1	1791	2025
1	1769	2026
1	1742	2027
1	1699	2028
1	1660	2029
1	1616	2030
1	1580	2031
1	1566	2032
1	1564	2033
1	1576	2034
1	1595	2035
1	1616	2036
1	1645	2037
1	1664	2038
1	1685	2039
1	1691	2040
1	1707	2041
1	1730	2042
1	1759	2043
1	1776	2044
1	1770	2045
1	1742	2046
1	1705	2047
1	1646	2048
1	1581	2049
1	1521	2050
1	1476	2051
1	1463	2052
1	1476	2053
1	1495	2054
1	1528	2055
1	1559	2056
1	1589	2057
1	1611	2058
1	1634	2059
1	1647	2060
1	1659	2061
1	1685	2062
1	1713	2063
1	1738	2064
1	1750	2065
1	1738	2066
1	1710	2067
1	1660	2068
1	1597	2069
1	1544	2070
1	1503	2071
1	1488	2072
1	1497	2073
1	1533	2074
1	1580	2075
1	1634	2076
1	1687	2077
1	1738	2078
1	1769	2079
1	1791	2080
1	1801	2081
1	1823	2082
1	1840	2083
1	1836	2084
1	1815	2085
1	1772	2086
1	1724	2087
1	1661	2088
1	1605	2089
1	1539	2090
1	1481	2091
1	1449	2092
1	1431	2093
1	1426	2094
1	1443	2095
1	1474	2096
1	1514	2097
1	1561	2098
1	1607	2099
1	1647	2100
1	1687	2101
1	1729	2102
1	1764	2103
1	1796	2104
1	1794	2105
1	1769	2106
1	1727	2107
1	1665	2108
1	1599	2109
1	1532	2110
1	1481	2111
1	1466	2112
1	1476	2113
1	1499	2114
1	1540	2115
1	1583	2116
1	1622	2117
1	1659	2118
1	1700	2119
1	1727	2120
1	1750	2121
1	1782	2122
1	1819	2123
1	1845	2124
1	1847	2125
1	1834	2126
1	1803	2127
1	1761	2128
1	1706	2129
1	1661	2130
1	1634	2131
1	1647	2132
1	1685	2133
1	1744	2134
1	1817	2135
1	1869	2136
1	1934	2137
1	1976	2138
1	2011	2139
1	2034	2140
1	2052	2141
1	2073	2142
1	2101	2143
1	2126	2144
1	2130	2145
1	2106	2146
1	2066	2147
1	2000	2148
1	1908	2149
1	1817	2150
1	1723	2151
1	1673	2152
1	1639	2153
1	1622	2154
1	1615	2155
1	1621	2156
1	1641	2157
1	1670	2158
1	1692	2159
1	1710	2160
1	1723	2161
1	1743	2162
1	1766	2163
1	1789	2164
1	1782	2165
1	1753	2166
1	1711	2167
1	1647	2168
1	1581	2169
1	1518	2170
1	1477	2171
1	1481	2172
1	1504	2173
1	1533	2174
1	1575	2175
1	1616	2176
1	1652	2177
1	1685	2178
1	1711	2179
1	1731	2180
1	1747	2181
1	1772	2182
1	1791	2183
1	1803	2184
1	1796	2185
1	1779	2186
1	1752	2187
1	1709	2188
1	1650	2189
1	1596	2190
1	1555	2191
1	1539	2192
1	1544	2193
1	1570	2194
1	1602	2195
1	1634	2196
1	1667	2197
1	1692	2198
1	1703	2199
1	1700	2200
1	1686	2201
1	1686	2202
1	1686	2203
1	1688	2204
1	1685	2205
1	1665	2206
1	1645	2207
1	1607	2208
1	1572	2209
1	1535	2210
1	1507	2211
1	1505	2212
1	1527	2213
1	1558	2214
1	1604	2215
1	1646	2216
1	1686	2217
1	1724	2218
1	1746	2219
1	1764	2220
1	1777	2221
1	1793	2222
1	1806	2223
1	1817	2224
1	1803	2225
1	1773	2226
1	1736	2227
1	1686	2228
1	1634	2229
1	1590	2230
1	1560	2231
1	1557	2232
1	1571	2233
1	1584	2234
1	1612	2235
1	1644	2236
1	1690	2237
1	1740	2238
1	1790	2239
1	1832	2240
1	1851	2241
1	1882	2242
1	1903	2243
1	1908	2244
1	1881	2245
1	1830	2246
1	1764	2247
1	1691	2248
1	1613	2249
1	1551	2250
1	1503	2251
1	1488	2252
1	1495	2253
1	1499	2254
1	1526	2255
1	1563	2256
1	1602	2257
1	1639	2258
1	1675	2259
1	1698	2260
1	1710	2261
1	1730	2262
1	1752	2263
1	1764	2264
1	1764	2265
1	1746	2266
1	1713	2267
1	1669	2268
1	1622	2269
1	1569	2270
1	1529	2271
1	1521	2272
1	1538	2273
1	1572	2274
1	1616	2275
1	1668	2276
1	1717	2277
1	1757	2278
1	1787	2279
1	1790	2300
1	1816	2301
1	1839	2302
1	1858	2303
1	1868	2304
1	1861	2305
1	1843	2306
1	1814	2307
1	1772	2308
1	1737	2309
1	1709	2310
1	1687	2311
1	1683	2312
1	1691	2313
1	1717	2314
1	1747	2315
1	1782	2316
1	1818	2317
1	1852	2318
1	1872	2319
1	1813	2280
1	1827	2281
1	1843	2282
1	1854	2283
1	1852	2284
1	1828	2285
1	1791	2286
1	1747	2287
1	1687	2288
1	1629	2289
1	1573	2290
1	1532	2291
1	1521	2292
1	1525	2293
1	1538	2294
1	1571	2295
1	1616	2296
1	1663	2297
1	1710	2298
1	1757	2299
1	1885	2320
1	1892	2321
1	1907	2322
1	1916	2323
1	1908	2324
1	1892	2325
1	1855	2326
1	1811	2327
1	1751	2328
1	1703	2329
1	1656	2330
1	1621	2331
1	1620	2332
1	1642	2333
1	1679	2334
1	1724	2335
1	1763	2336
1	1803	2337
1	1844	2338
1	1869	2339
1	1886	2340
1	1898	2341
1	1917	2342
1	1930	2343
1	1926	2344
1	1922	2345
1	1901	2346
1	1875	2347
1	1825	2348
1	1762	2349
1	1705	2350
1	1667	2351
1	1670	2352
1	1703	2353
1	1739	2354
1	1787	2355
1	1840	2356
1	1878	2357
1	1905	2358
1	1929	2359
1	1940	2360
1	1949	2361
1	1967	2362
1	1976	2363
1	1974	2364
1	1949	2365
1	1903	2366
1	1843	2367
1	1765	2368
1	1698	2369
1	1647	2370
1	1608	2371
1	1607	2372
1	1625	2373
1	1664	2374
1	1712	2375
1	1766	2376
1	1825	2377
1	1877	2378
1	1922	2379
1	1962	2380
1	1994	2381
1	2025	2382
1	2048	2383
1	2057	2384
1	2053	2385
1	2028	2386
1	1986	2387
1	1927	2388
1	1871	2389
1	1819	2390
1	1780	2391
1	1777	2392
1	1791	2393
1	1818	2394
1	1856	2395
1	1896	2396
1	1939	2397
1	1975	2398
1	2009	2399
1	2027	2400
1	2038	2401
1	2049	2402
1	2045	2403
1	2026	2404
1	1983	2405
1	1922	2406
1	1856	2407
1	1769	2408
1	1691	2409
1	1616	2410
1	1555	2411
1	1530	2412
1	1530	2413
1	1544	2414
1	1582	2415
1	1636	2416
1	1694	2417
1	1751	2418
1	1802	2419
1	1847	2420
1	1881	2421
1	1919	2422
1	1937	2423
1	1939	2424
1	1920	2425
1	1880	2426
1	1829	2427
1	1755	2428
1	1684	2429
1	1615	2430
1	1562	2431
1	1535	2432
1	1530	2433
1	1551	2434
1	1582	2435
1	1608	2436
1	1647	2437
1	1675	2438
1	1703	2439
1	1679	2460
1	1672	2461
1	1677	2462
1	1679	2463
1	1687	2464
1	1674	2465
1	1646	2466
1	1607	2467
1	1554	2468
1	1494	2469
1	1438	2470
1	1398	2471
1	1391	2472
1	1407	2473
1	1437	2474
1	1489	2475
1	1553	2476
1	1607	2477
1	1654	2478
1	1695	2479
1	1715	2440
1	1718	2441
1	1732	2442
1	1746	2443
1	1755	2444
1	1751	2445
1	1733	2446
1	1703	2447
1	1664	2448
1	1617	2449
1	1573	2450
1	1538	2451
1	1537	2452
1	1553	2453
1	1578	2454
1	1607	2455
1	1634	2456
1	1655	2457
1	1674	2458
1	1682	2459
1	1723	2480
1	1739	2481
1	1755	2482
1	1767	2483
1	1764	2484
1	1751	2485
1	1725	2486
1	1697	2487
1	1652	2488
1	1596	2489
1	1542	2490
1	1502	2491
1	1489	2492
1	1499	2493
1	1526	2494
1	1555	2495
1	1586	2496
1	1623	2497
1	1657	2498
1	1686	2499
1	1716	2500
1	1749	2501
1	1787	2502
1	1818	2503
1	1827	2504
1	1826	2505
1	1800	2506
1	1764	2507
1	1708	2508
1	1639	2509
1	1562	2510
1	1502	2511
1	1476	2512
1	1476	2513
1	1498	2514
1	1539	2515
1	1584	2516
1	1635	2517
1	1675	2518
1	1699	2519
1	1718	2520
1	1729	2521
1	1744	2522
1	1757	2523
1	1764	2524
1	1749	2525
1	1712	2526
1	1662	2527
1	1602	2528
1	1535	2529
1	1476	2530
1	1438	2531
1	1436	2532
1	1450	2533
1	1474	2534
1	1515	2535
1	1561	2536
1	1607	2537
1	1647	2538
1	1686	2539
1	1703	2540
1	1711	2541
1	1738	2542
1	1746	2543
1	1754	2544
1	1738	2545
1	1705	2546
1	1659	2547
1	1603	2548
1	1544	2549
1	1497	2550
1	1448	2551
1	1425	2552
1	1424	2553
1	1436	2554
1	1451	2555
1	1477	2556
1	1501	2557
1	1528	2558
1	1561	2559
1	1589	2560
1	1616	2561
1	1662	2562
1	1718	2563
1	1764	2564
1	1796	2565
1	1810	2566
1	1795	2567
1	1765	2568
1	1724	2569
1	1660	2570
1	1602	2571
1	1575	2572
1	1574	2573
1	1594	2574
1	1625	2575
1	1652	2576
1	1678	2577
1	1701	2578
1	1710	2579
1	1711	2580
1	1710	2581
1	1715	2582
1	1720	2583
1	1723	2584
1	1710	2585
1	1687	2586
1	1660	2587
1	1621	2588
1	1580	2589
1	1538	2590
1	1508	2591
1	1513	2592
1	1523	2593
1	1552	2594
1	1593	2595
1	1636	2596
1	1680	2597
1	1718	2598
1	1739	2599
1	1755	2600
1	1764	2601
1	1780	2602
1	1782	2603
1	1772	2604
1	1742	2605
1	1698	2606
1	1647	2607
1	1585	2608
1	1518	2609
1	1467	2610
1	1425	2611
1	1414	2612
1	1425	2613
1	1459	2614
1	1497	2615
1	1543	2616
1	1594	2617
1	1643	2618
1	1686	2619
1	1724	2620
1	1752	2621
1	1790	2622
1	1824	2623
1	1836	2624
1	1827	2625
1	1787	2626
1	1731	2627
1	1649	2628
1	1575	2629
1	1505	2630
1	1461	2631
1	1450	2632
1	1467	2633
1	1503	2634
1	1553	2635
1	1600	2636
1	1651	2637
1	1688	2638
1	1715	2639
1	1729	2640
1	1734	2641
1	1748	2642
1	1760	2643
1	1764	2644
1	1755	2645
1	1723	2646
1	1679	2647
1	1622	2648
1	1559	2649
1	1503	2650
1	1464	2651
1	1462	2652
1	1485	2653
1	1524	2654
1	1575	2655
1	1630	2656
1	1671	2657
1	1697	2658
1	1715	2659
1	1721	2660
1	1724	2661
1	1738	2662
1	1749	2663
1	1750	2664
1	1735	2665
1	1706	2666
1	1670	2667
1	1622	2668
1	1569	2669
1	1526	2670
1	1490	2671
1	1478	2672
1	1485	2673
1	1508	2674
1	1541	2675
1	1570	2676
1	1597	2677
1	1622	2678
1	1645	2679
1	1661	2680
1	1674	2681
1	1688	2682
1	1699	2683
1	1698	2684
1	1690	2685
1	1668	2686
1	1634	2687
1	1587	2688
1	1550	2689
1	1505	2690
1	1476	2691
1	1472	2692
1	1481	2693
1	1503	2694
1	1536	2695
1	1580	2696
1	1625	2697
1	1665	2698
1	1701	2699
1	1729	2700
1	1752	2701
1	1783	2702
1	1816	2703
1	1837	2704
1	1841	2705
1	1818	2706
1	1770	2707
1	1704	2708
1	1634	2709
1	1571	2710
1	1526	2711
1	1520	2712
1	1530	2713
1	1550	2714
1	1581	2715
1	1625	2716
1	1669	2717
1	1712	2718
1	1747	2719
1	1764	2720
1	1777	2721
1	1795	2722
1	1810	2723
1	1808	2724
1	1787	2725
1	1754	2726
1	1729	2727
1	1686	2728
1	1639	2729
1	1602	2730
1	1577	2731
1	1571	2732
1	1583	2733
1	1613	2734
1	1656	2735
1	1692	2736
1	1736	2737
1	1762	2738
1	1777	2739
1	1665	2760
1	1682	2761
1	1711	2762
1	1739	2763
1	1760	2764
1	1751	2765
1	1724	2766
1	1685	2767
1	1632	2768
1	1573	2769
1	1517	2770
1	1473	2771
1	1461	2772
1	1476	2773
1	1508	2774
1	1559	2775
1	1615	2776
1	1670	2777
1	1716	2778
1	1760	2779
1	1777	2780
1	1789	2781
1	1796	2782
1	1815	2783
1	1819	2784
1	1814	2785
1	1777	2786
1	1728	2787
1	1664	2788
1	1593	2789
1	1526	2790
1	1461	2791
1	1429	2792
1	1424	2793
1	1445	2794
1	1476	2795
1	1517	2796
1	1562	2797
1	1607	2798
1	1650	2799
1	1782	2740
1	1780	2741
1	1790	2742
1	1791	2743
1	1792	2744
1	1782	2745
1	1759	2746
1	1725	2747
1	1680	2748
1	1631	2749
1	1584	2750
1	1543	2751
1	1534	2752
1	1542	2753
1	1562	2754
1	1589	2755
1	1616	2756
1	1638	2757
1	1654	2758
1	1660	2759
1	1686	2800
1	1707	2801
1	1733	2802
1	1746	2803
1	1750	2804
1	1746	2805
1	1732	2806
1	1701	2807
1	1656	2808
1	1611	2809
1	1569	2810
1	1530	2811
1	1513	2812
1	1503	2813
1	1508	2814
1	1523	2815
1	1547	2816
1	1581	2817
1	1620	2818
1	1649	2819
1	1675	2820
1	1699	2821
1	1729	2822
1	1752	2823
1	1770	2824
1	1782	2825
1	1777	2826
1	1757	2827
1	1706	2828
1	1642	2829
1	1570	2830
1	1511	2831
1	1485	2832
1	1497	2833
1	1528	2834
1	1574	2835
1	1618	2836
1	1662	2837
1	1705	2838
1	1737	2839
1	1764	2840
1	1791	2841
1	1825	2842
1	1845	2843
1	1853	2844
1	1837	2845
1	1792	2846
1	1740	2847
1	1681	2848
1	1607	2849
1	1535	2850
1	1474	2851
1	1441	2852
1	1433	2853
1	1445	2854
1	1471	2855
1	1503	2856
1	1537	2857
1	1572	2858
1	1606	2859
1	1628	2860
1	1644	2861
1	1677	2862
1	1702	2863
1	1707	2864
1	1700	2865
1	1683	2866
1	1656	2867
1	1620	2868
1	1592	2869
1	1565	2870
1	1553	2871
1	1570	2872
1	1607	2873
1	1654	2874
1	1704	2875
1	1751	2876
1	1793	2877
1	1834	2878
1	1856	2879
1	1871	2880
1	1895	2881
1	1922	2882
1	1948	2883
1	1964	2884
1	1956	2885
1	1932	2886
1	1904	2887
1	1857	2888
1	1811	2889
1	1764	2890
1	1738	2891
1	1742	2892
1	1767	2893
1	1798	2894
1	1846	2895
1	1895	2896
1	1940	2897
1	1976	2898
1	2009	2899
1	2024	2900
1	2024	2901
1	2014	2902
1	1995	2903
1	1961	2904
1	1903	2905
1	1827	2906
1	1735	2907
1	1635	2908
1	1535	2909
1	1451	2910
1	1393	2911
1	1370	2912
1	1384	2913
1	1429	2914
1	1481	2915
1	1539	2916
1	1595	2917
1	1651	2918
1	1700	2919
1	1741	2920
1	1766	2921
1	1803	2922
1	1834	2923
1	1842	2924
1	1823	2925
1	1780	2926
1	1728	2927
1	1661	2928
1	1602	2929
1	1541	2930
1	1490	2931
1	1476	2932
1	1486	2933
1	1526	2934
1	1581	2935
1	1634	2936
1	1692	2937
1	1740	2938
1	1779	2939
1	1809	2940
1	1832	2941
1	1856	2942
1	1869	2943
1	1875	2944
1	1860	2945
1	1818	2946
1	1762	2947
1	1689	2948
1	1619	2949
1	1555	2950
1	1503	2951
1	1495	2952
1	1517	2953
1	1552	2954
1	1593	2955
1	1645	2956
1	1697	2957
1	1739	2958
1	1769	2959
1	1783	2960
1	1791	2961
1	1802	2962
1	1813	2963
1	1811	2964
1	1791	2965
1	1764	2966
1	1724	2967
1	1669	2968
1	1602	2969
1	1538	2970
1	1490	2971
1	1476	2972
1	1479	2973
1	1510	2974
1	1546	2975
1	1585	2976
1	1629	2977
1	1664	2978
1	1695	2979
1	1717	2980
1	1737	2981
1	1760	2982
1	1778	2983
1	1782	2984
1	1778	2985
1	1760	2986
1	1736	2987
1	1706	2988
1	1682	2989
1	1654	2990
1	1631	2991
1	1628	2992
1	1634	2993
1	1638	2994
1	1652	2995
1	1662	2996
1	1674	2997
1	1684	2998
1	1688	2999
1	1692	3000
1	1694	3001
1	1709	3002
1	1724	3003
1	1741	3004
1	1737	3005
1	1712	3006
1	1682	3007
1	1634	3008
1	1591	3009
1	1553	3010
1	1524	3011
1	1528	3012
1	1553	3013
1	1589	3014
1	1639	3015
1	1690	3016
1	1737	3017
1	1773	3018
1	1803	3019
1	1822	3020
1	1832	3021
1	1857	3022
1	1882	3023
1	1904	3024
1	1913	3025
1	1904	3026
1	1878	3027
1	1827	3028
1	1750	3029
1	1674	3030
1	1607	3031
1	1564	3032
1	1542	3033
1	1542	3034
1	1555	3035
1	1589	3036
1	1628	3037
1	1652	3038
1	1684	3039
1	1712	3040
1	1747	3041
1	1788	3042
1	1827	3043
1	1843	3044
1	1831	3045
1	1796	3046
1	1751	3047
1	1693	3048
1	1636	3049
1	1594	3050
1	1566	3051
1	1577	3052
1	1613	3053
1	1656	3054
1	1701	3055
1	1751	3056
1	1791	3057
1	1827	3058
1	1843	3059
1	1849	3060
1	1854	3061
1	1870	3062
1	1885	3063
1	1898	3064
1	1886	3065
1	1866	3066
1	1836	3067
1	1795	3068
1	1754	3069
1	1718	3070
1	1693	3071
1	1692	3072
1	1711	3073
1	1737	3074
1	1770	3075
1	1803	3076
1	1830	3077
1	1841	3078
1	1845	3079
1	1838	3080
1	1830	3081
1	1843	3082
1	1861	3083
1	1878	3084
1	1881	3085
1	1867	3086
1	1839	3087
1	1791	3088
1	1738	3089
1	1691	3090
1	1656	3091
1	1646	3092
1	1656	3093
1	1683	3094
1	1707	3095
1	1747	3096
1	1782	3097
1	1816	3098
1	1843	3099
1	1868	3100
1	1891	3101
1	1934	3102
1	1976	3103
1	2005	3104
1	2014	3105
1	1999	3106
1	1966	3107
1	1913	3108
1	1860	3109
1	1799	3110
1	1752	3111
1	1737	3112
1	1740	3113
1	1756	3114
1	1783	3115
1	1821	3116
1	1862	3117
1	1899	3118
1	1921	3119
1	1943	3120
1	1965	3121
1	1998	3122
1	2022	3123
1	2037	3124
1	2019	3125
1	1989	3126
1	1948	3127
1	1895	3128
1	1829	3129
1	1763	3130
1	1711	3131
1	1699	3132
1	1712	3133
1	1739	3134
1	1788	3135
1	1842	3136
1	1896	3137
1	1951	3138
1	1994	3139
1	2012	3140
1	2014	3141
1	2024	3142
1	2027	3143
1	2030	3144
1	2025	3145
1	2003	3146
1	1974	3147
1	1924	3148
1	1859	3149
1	1788	3150
1	1724	3151
1	1687	3152
1	1672	3153
1	1672	3154
1	1688	3155
1	1720	3156
1	1760	3157
1	1803	3158
1	1845	3159
1	1867	3160
1	1873	3161
1	1894	3162
1	1907	3163
1	1904	3164
1	1891	3165
1	1860	3166
1	1823	3167
1	1767	3168
1	1721	3169
1	1670	3170
1	1622	3171
1	1596	3172
1	1587	3173
1	1595	3174
1	1607	3175
1	1625	3176
1	1649	3177
1	1679	3178
1	1698	3179
1	1723	3180
1	1751	3181
1	1791	3182
1	1831	3183
1	1860	3184
1	1868	3185
1	1850	3186
1	1813	3187
1	1746	3188
1	1674	3189
1	1599	3190
1	1536	3191
1	1494	3192
1	1469	3193
1	1456	3194
1	1467	3195
1	1485	3196
1	1507	3197
1	1535	3198
1	1571	3199
1	1607	3200
1	1647	3201
1	1698	3202
1	1737	3203
1	1767	3204
1	1783	3205
1	1777	3206
1	1747	3207
1	1692	3208
1	1621	3209
1	1555	3210
1	1504	3211
1	1485	3212
1	1490	3213
1	1520	3214
1	1551	3215
1	1585	3216
1	1626	3217
1	1661	3218
1	1693	3219
1	1713	3220
1	1724	3221
1	1731	3222
1	1731	3223
1	1712	3224
1	1687	3225
1	1649	3226
1	1610	3227
1	1563	3228
1	1526	3229
1	1491	3230
1	1469	3231
1	1476	3232
1	1503	3233
1	1543	3234
1	1587	3235
1	1629	3236
1	1672	3237
1	1704	3238
1	1728	3239
1	1742	3240
1	1749	3241
1	1762	3242
1	1764	3243
1	1757	3244
1	1743	3245
1	1716	3246
1	1682	3247
1	1639	3248
1	1590	3249
1	1547	3250
1	1519	3251
1	1518	3252
1	1542	3253
1	1574	3254
1	1616	3255
1	1662	3256
1	1701	3257
1	1727	3258
1	1742	3259
1	1738	3260
1	1733	3261
1	1737	3262
1	1738	3263
1	1729	3264
1	1706	3265
1	1665	3266
1	1625	3267
1	1578	3268
1	1525	3269
1	1482	3270
1	1450	3271
1	1450	3272
1	1462	3273
1	1495	3274
1	1530	3275
1	1562	3276
1	1593	3277
1	1623	3278
1	1656	3279
1	1657	3300
1	1665	3301
1	1687	3302
1	1716	3303
1	1751	3304
1	1775	3305
1	1783	3306
1	1775	3307
1	1744	3308
1	1705	3309
1	1660	3310
1	1621	3311
1	1607	3312
1	1603	3313
1	1600	3314
1	1607	3315
1	1618	3316
1	1623	3317
1	1629	3318
1	1638	3319
1	1685	3280
1	1708	3281
1	1733	3282
1	1746	3283
1	1747	3284
1	1736	3285
1	1708	3286
1	1670	3287
1	1621	3288
1	1575	3289
1	1525	3290
1	1477	3291
1	1467	3292
1	1476	3293
1	1500	3294
1	1530	3295
1	1566	3296
1	1599	3297
1	1628	3298
1	1643	3299
1	1639	3320
1	1643	3321
1	1665	3322
1	1699	3323
1	1718	3324
1	1729	3325
1	1713	3326
1	1685	3327
1	1634	3328
1	1570	3329
1	1511	3330
1	1463	3331
1	1448	3332
1	1458	3333
1	1499	3334
1	1542	3335
1	1586	3336
1	1631	3337
1	1660	3338
1	1692	3339
1	1711	3340
1	1727	3341
1	1744	3342
1	1755	3343
1	1755	3344
1	1739	3345
1	1711	3346
1	1669	3347
1	1618	3348
1	1548	3349
1	1484	3350
1	1429	3351
1	1409	3352
1	1413	3353
1	1426	3354
1	1459	3355
1	1502	3356
1	1544	3357
1	1587	3358
1	1621	3359
1	1654	3360
1	1690	3361
1	1745	3362
1	1791	3363
1	1828	3364
1	1831	3365
1	1816	3366
1	1775	3367
1	1717	3368
1	1646	3369
1	1568	3370
1	1501	3371
1	1469	3372
1	1475	3373
1	1499	3374
1	1542	3375
1	1582	3376
1	1623	3377
1	1660	3378
1	1690	3379
1	1697	3380
1	1698	3381
1	1710	3382
1	1721	3383
1	1729	3384
1	1719	3385
1	1698	3386
1	1665	3387
1	1626	3388
1	1574	3389
1	1528	3390
1	1490	3391
1	1468	3392
1	1464	3393
1	1477	3394
1	1498	3395
1	1521	3396
1	1546	3397
1	1579	3398
1	1607	3399
1	1631	3400
1	1650	3401
1	1687	3402
1	1726	3403
1	1748	3404
1	1756	3405
1	1741	3406
1	1721	3407
1	1687	3408
1	1649	3409
1	1602	3410
1	1555	3411
1	1535	3412
1	1539	3413
1	1558	3414
1	1581	3415
1	1603	3416
1	1620	3417
1	1634	3418
1	1636	3419
1	1635	3420
1	1639	3421
1	1658	3422
1	1684	3423
1	1712	3424
1	1718	3425
1	1708	3426
1	1686	3427
1	1656	3428
1	1621	3429
1	1587	3430
1	1566	3431
1	1571	3432
1	1596	3433
1	1634	3434
1	1674	3435
1	1708	3436
1	1736	3437
1	1762	3438
1	1786	3439
1	1799	3440
1	1814	3441
1	1830	3442
1	1843	3443
1	1843	3444
1	1827	3445
1	1782	3446
1	1716	3447
1	1634	3448
1	1549	3449
1	1475	3450
1	1413	3451
1	1377	3452
1	1362	3453
1	1363	3454
1	1377	3455
1	1417	3456
1	1450	3457
1	1495	3458
1	1540	3459
1	1580	3460
1	1607	3461
1	1634	3462
1	1660	3463
1	1670	3464
1	1670	3465
1	1652	3466
1	1621	3467
1	1573	3468
1	1535	3469
1	1497	3470
1	1474	3471
1	1487	3472
1	1521	3473
1	1566	3474
1	1609	3475
1	1654	3476
1	1698	3477
1	1733	3478
1	1754	3479
1	1738	3500
1	1749	3501
1	1764	3502
1	1776	3503
1	1788	3504
1	1785	3505
1	1764	3506
1	1731	3507
1	1677	3508
1	1607	3509
1	1547	3510
1	1500	3511
1	1482	3512
1	1490	3513
1	1515	3514
1	1539	3515
1	1560	3516
1	1589	3517
1	1609	3518
1	1629	3519
1	1769	3480
1	1791	3481
1	1833	3482
1	1862	3483
1	1880	3484
1	1870	3485
1	1845	3486
1	1802	3487
1	1746	3488
1	1682	3489
1	1618	3490
1	1563	3491
1	1544	3492
1	1539	3493
1	1557	3494
1	1589	3495
1	1630	3496
1	1665	3497
1	1698	3498
1	1728	3499
1	1634	3520
1	1644	3521
1	1672	3522
1	1710	3523
1	1738	3524
1	1756	3525
1	1764	3526
1	1755	3527
1	1716	3528
1	1670	3529
1	1609	3530
1	1555	3531
1	1526	3532
1	1515	3533
1	1530	3534
1	1556	3535
1	1582	3536
1	1618	3537
1	1660	3538
1	1688	3539
1	1710	3540
1	1712	3541
1	1718	3542
1	1725	3543
1	1721	3544
1	1707	3545
1	1678	3546
1	1642	3547
1	1600	3548
1	1548	3549
1	1498	3550
1	1455	3551
1	1450	3552
1	1463	3553
1	1488	3554
1	1520	3555
1	1555	3556
1	1582	3557
1	1611	3558
1	1636	3559
1	1652	3560
1	1663	3561
1	1685	3562
1	1703	3563
1	1724	3564
1	1729	3565
1	1719	3566
1	1703	3567
1	1673	3568
1	1632	3569
1	1594	3570
1	1566	3571
1	1555	3572
1	1555	3573
1	1566	3574
1	1581	3575
1	1603	3576
1	1633	3577
1	1658	3578
1	1674	3579
1	1686	3580
1	1694	3581
1	1711	3582
1	1720	3583
1	1715	3584
1	1701	3585
1	1672	3586
1	1631	3587
1	1570	3588
1	1519	3589
1	1474	3590
1	1446	3591
1	1450	3592
1	1475	3593
1	1510	3594
1	1556	3595
1	1598	3596
1	1637	3597
1	1669	3598
1	1686	3599
1	1686	3600
1	1674	3601
1	1676	3602
1	1685	3603
1	1699	3604
1	1699	3605
1	1684	3606
1	1657	3607
1	1608	3608
1	1556	3609
1	1505	3610
1	1475	3611
1	1474	3612
1	1499	3613
1	1536	3614
1	1593	3615
1	1647	3616
1	1698	3617
1	1746	3618
1	1791	3619
1	1819	3620
1	1831	3621
1	1832	3622
1	1817	3623
1	1788	3624
1	1746	3625
1	1691	3626
1	1634	3627
1	1566	3628
1	1499	3629
1	1445	3630
1	1399	3631
1	1394	3632
1	1412	3633
1	1446	3634
1	1490	3635
1	1530	3636
1	1580	3637
1	1620	3638
1	1665	3639
1	2106	3660
1	2130	3661
1	2149	3662
1	2160	3663
1	2172	3664
1	2157	3665
1	2125	3666
1	2080	3667
1	2021	3668
1	1947	3669
1	1869	3670
1	1801	3671
1	1764	3672
1	1739	3673
1	1720	3674
1	1712	3675
1	1712	3676
1	1721	3677
1	1734	3678
1	1754	3679
1	1702	3640
1	1731	3641
1	1761	3642
1	1787	3643
1	1801	3644
1	1801	3645
1	1782	3646
1	1749	3647
1	1700	3648
1	1646	3649
1	1607	3650
1	1581	3651
1	1589	3652
1	1628	3653
1	1686	3654
1	1762	3655
1	1855	3656
1	1940	3657
1	2015	3658
1	2067	3659
1	1764	3680
1	1769	3681
1	1782	3682
1	1787	3683
1	1786	3684
1	1772	3685
1	1750	3686
1	1717	3687
1	1676	3688
1	1620	3689
1	1566	3690
1	1515	3691
1	1479	3692
1	1461	3693
1	1466	3694
1	1487	3695
1	1516	3696
1	1548	3697
1	1582	3698
1	1613	3699
1	1638	3700
1	1667	3701
1	1712	3702
1	1764	3703
1	1800	3704
1	1823	3705
1	1815	3706
1	1778	3707
1	1725	3708
1	1661	3709
1	1587	3710
1	1518	3711
1	1482	3712
1	1476	3713
1	1494	3714
1	1530	3715
1	1579	3716
1	1623	3717
1	1660	3718
1	1684	3719
1	1700	3720
1	1712	3721
1	1724	3722
1	1728	3723
1	1728	3724
1	1707	3725
1	1674	3726
1	1643	3727
1	1608	3728
1	1581	3729
1	1551	3730
1	1525	3731
1	1526	3732
1	1541	3733
1	1561	3734
1	1595	3735
1	1630	3736
1	1663	3737
1	1695	3738
1	1719	3739
1	1733	3740
1	1738	3741
1	1755	3742
1	1770	3743
1	1778	3744
1	1765	3745
1	1738	3746
1	1701	3747
1	1649	3748
1	1581	3749
1	1521	3750
1	1477	3751
1	1464	3752
1	1474	3753
1	1494	3754
1	1531	3755
1	1573	3756
1	1607	3757
1	1638	3758
1	1661	3759
1	1686	3760
1	1713	3761
1	1755	3762
1	1792	3763
1	1820	3764
1	1834	3765
1	1818	3766
1	1778	3767
1	1720	3768
1	1665	3769
1	1607	3770
1	1557	3771
1	1538	3772
1	1539	3773
1	1554	3774
1	1585	3775
1	1632	3776
1	1675	3777
1	1713	3778
1	1742	3779
1	1764	3780
1	1779	3781
1	1796	3782
1	1814	3783
1	1816	3784
1	1793	3785
1	1764	3786
1	1736	3787
1	1699	3788
1	1671	3789
1	1637	3790
1	1609	3791
1	1607	3792
1	1632	3793
1	1660	3794
1	1697	3795
1	1718	3796
1	1731	3797
1	1735	3798
1	1739	3799
1	1738	3800
1	1737	3801
1	1744	3802
1	1753	3803
1	1759	3804
1	1756	3805
1	1731	3806
1	1690	3807
1	1636	3808
1	1581	3809
1	1532	3810
1	1503	3811
1	1503	3812
1	1532	3813
1	1584	3814
1	1643	3815
1	1699	3816
1	1744	3817
1	1767	3818
1	1776	3819
1	1773	3820
1	1770	3821
1	1770	3822
1	1776	3823
1	1769	3824
1	1757	3825
1	1731	3826
1	1697	3827
1	1648	3828
1	1607	3829
1	1562	3830
1	1534	3831
1	1534	3832
1	1562	3833
1	1611	3834
1	1664	3835
1	1717	3836
1	1764	3837
1	1809	3838
1	1836	3839
1	1847	3840
1	1845	3841
1	1856	3842
1	1863	3843
1	1856	3844
1	1835	3845
1	1791	3846
1	1743	3847
1	1697	3848
1	1644	3849
1	1598	3850
1	1566	3851
1	1572	3852
1	1598	3853
1	1626	3854
1	1659	3855
1	1686	3856
1	1712	3857
1	1734	3858
1	1755	3859
1	1764	3860
1	1765	3861
1	1778	3862
1	1791	3863
1	1811	3864
1	1814	3865
1	1801	3866
1	1791	3867
1	1775	3868
1	1755	3869
1	1739	3870
1	1734	3871
1	1751	3872
1	1791	3873
1	1855	3874
1	1901	3875
1	1944	3876
1	1985	3877
1	2024	3878
1	2041	3879
1	2048	3880
1	2048	3881
1	2052	3882
1	2052	3883
1	2037	3884
1	2015	3885
1	1976	3886
1	1923	3887
1	1857	3888
1	1790	3889
1	1720	3890
1	1669	3891
1	1660	3892
1	1664	3893
1	1685	3894
1	1710	3895
1	1738	3896
1	1779	3897
1	1825	3898
1	1857	3899
1	1877	3900
1	1890	3901
1	1908	3902
1	1922	3903
1	1943	3904
1	1936	3905
1	1917	3906
1	1894	3907
1	1857	3908
1	1814	3909
1	1759	3910
1	1713	3911
1	1699	3912
1	1711	3913
1	1739	3914
1	1780	3915
1	1832	3916
1	1878	3917
1	1914	3918
1	1944	3919
1	1956	3920
1	1971	3921
1	1999	3922
1	2024	3923
1	2037	3924
1	2036	3925
1	2016	3926
1	1986	3927
1	1943	3928
1	1886	3929
1	1838	3930
1	1786	3931
1	1755	3932
1	1738	3933
1	1737	3934
1	1739	3935
1	1738	3936
1	1738	3937
1	1733	3938
1	1727	3939
1	1716	3940
1	1712	3941
1	1725	3942
1	1738	3943
1	1755	3944
1	1764	3945
1	1764	3946
1	1755	3947
1	1738	3948
1	1721	3949
1	1707	3950
1	1688	3951
1	1690	3952
1	1710	3953
1	1731	3954
1	1755	3955
1	1776	3956
1	1787	3957
1	1790	3958
1	1784	3959
1	1778	3960
1	1771	3961
1	1772	3962
1	1773	3963
1	1775	3964
1	1755	3965
1	1719	3966
1	1675	3967
1	1621	3968
1	1561	3969
1	1507	3970
1	1467	3971
1	1464	3972
1	1489	3973
1	1529	3974
1	1590	3975
1	1652	3976
1	1712	3977
1	1764	3978
1	1814	3979
1	1830	3980
1	1828	3981
1	1818	3982
1	1795	3983
1	1763	3984
1	1712	3985
1	1656	3986
1	1600	3987
1	1538	3988
1	1467	3989
1	1399	3990
1	1345	3991
1	1328	3992
1	1341	3993
1	1379	3994
1	1427	3995
1	1479	3996
1	1538	3997
1	1602	3998
1	1660	3999
1	1700	4000
1	1723	4001
1	1738	4002
1	1746	4003
1	1740	4004
1	1737	4005
1	1721	4006
1	1703	4006
1	1668	4008
1	1634	4009
1	1585	4010
1	1551	4011
1	1538	4012
1	1539	4013
1	1551	4014
1	1571	4014
1	1596	4016
1	1631	4017
1	1661	4018
1	1686	4019
1	1703	4020
1	1712	4021
1	1728	4022
1	1738	4022
1	1754	4024
1	1755	4025
1	1744	4026
1	1726	4027
1	1695	4028
1	1657	4029
1	1612	4030
1	1580	4030
1	1565	4032
1	1569	4033
1	1574	4034
1	1593	4035
1	1611	4036
1	1631	4037
1	1652	4038
1	1662	4038
1	1687	4060
1	1712	4061
1	1749	4062
1	1778	4062
1	1787	4064
1	1782	4065
1	1754	4066
1	1712	4067
1	1652	4068
1	1587	4069
1	1516	4070
1	1454	4070
1	1424	4072
1	1417	4073
1	1433	4074
1	1464	4075
1	1503	4076
1	1541	4077
1	1574	4078
1	1593	4078
1	1610	4080
1	1633	4081
1	1669	4082
1	1712	4083
1	1749	4084
1	1764	4085
1	1764	4086
1	1748	4086
1	1716	4088
1	1675	4089
1	1625	4090
1	1582	4091
1	1561	4092
1	1563	4093
1	1577	4094
1	1607	4094
1	1634	4096
1	1658	4097
1	1671	4098
1	1685	4099
1	1660	4040
1	1663	4041
1	1661	4042
1	1668	4043
1	1669	4044
1	1660	4045
1	1651	4046
1	1643	4046
1	1626	4048
1	1593	4049
1	1560	4050
1	1525	4051
1	1510	4052
1	1512	4053
1	1520	4054
1	1547	4054
1	1567	4056
1	1594	4057
1	1634	4058
1	1664	4059
1	1686	4100
1	1687	4101
1	1709	4102
1	1731	4103
1	1748	4104
1	1747	4105
1	1733	4106
1	1704	4107
1	1662	4108
1	1611	4109
1	1565	4110
1	1512	4111
1	1486	4112
1	1488	4113
1	1517	4114
1	1563	4115
1	1621	4116
1	1686	4117
1	1747	4118
1	1789	4119
1	1816	4120
1	1822	4121
1	1832	4122
1	1830	4123
1	1803	4124
1	1769	4125
1	1737	4126
1	1701	4127
1	1665	4128
1	1638	4129
1	1607	4130
1	1580	4131
1	1578	4132
1	1585	4133
1	1606	4134
1	1634	4135
1	1652	4136
1	1676	4137
1	1699	4138
1	1718	4139
1	1727	4140
1	1725	4141
1	1733	4142
1	1736	4143
1	1719	4144
1	1697	4145
1	1647	4146
1	1593	4147
1	1532	4148
1	1459	4149
1	1393	4150
1	1337	4151
1	1319	4152
1	1328	4153
1	1353	4154
1	1405	4155
1	1463	4156
1	1529	4157
1	1598	4158
1	1665	4159
1	1713	4160
1	1746	4161
1	1792	4162
1	1832	4163
1	1861	4164
1	1868	4165
1	1851	4166
1	1817	4167
1	1754	4168
1	1685	4169
1	1611	4170
1	1555	4171
1	1528	4172
1	1525	4173
1	1540	4174
1	1562	4175
1	1583	4176
1	1597	4177
1	1608	4178
1	1621	4179
1	1634	4180
1	1647	4181
1	1682	4182
1	1715	4183
1	1738	4184
1	1746	4185
1	1730	4186
1	1695	4187
1	1642	4188
1	1589	4189
1	1529	4190
1	1475	4191
1	1450	4192
1	1450	4193
1	1478	4194
1	1529	4195
1	1582	4196
1	1638	4197
1	1688	4198
1	1738	4199
1	1764	4200
1	1777	4201
1	1800	4202
1	1832	4203
1	1856	4204
1	1853	4205
1	1826	4206
1	1782	4207
1	1726	4208
1	1661	4209
1	1592	4210
1	1525	4211
1	1482	4212
1	1464	4213
1	1464	4214
1	1490	4215
1	1530	4216
1	1572	4217
1	1613	4218
1	1654	4219
1	1679	4220
1	1699	4221
1	1729	4222
1	1760	4223
1	1782	4224
1	1789	4225
1	1773	4226
1	1746	4227
1	1699	4228
1	1634	4229
1	1570	4230
1	1507	4231
1	1476	4232
1	1475	4233
1	1489	4234
1	1518	4235
1	1542	4236
1	1565	4237
1	1580	4238
1	1596	4239
1	1610	4240
1	1634	4241
1	1669	4242
1	1701	4243
1	1730	4244
1	1744	4245
1	1738	4246
1	1719	4247
1	1682	4248
1	1634	4249
1	1586	4250
1	1544	4251
1	1529	4252
1	1543	4253
1	1564	4254
1	1594	4255
1	1623	4256
1	1652	4257
1	1674	4258
1	1687	4259
1	1665	4300
1	1660	4301
1	1675	4302
1	1694	4303
1	1710	4304
1	1713	4305
1	1705	4306
1	1680	4307
1	1638	4308
1	1593	4309
1	1543	4310
1	1516	4311
1	1527	4312
1	1555	4313
1	1595	4314
1	1629	4315
1	1656	4316
1	1682	4317
1	1702	4318
1	1712	4319
1	1815	4280
1	1826	4281
1	1849	4282
1	1868	4283
1	1872	4284
1	1861	4285
1	1831	4286
1	1777	4287
1	1712	4288
1	1633	4289
1	1568	4290
1	1526	4291
1	1515	4292
1	1526	4293
1	1555	4294
1	1590	4295
1	1624	4296
1	1656	4297
1	1670	4298
1	1673	4299
1	1699	4260
1	1711	4261
1	1736	4262
1	1762	4263
1	1787	4264
1	1787	4265
1	1764	4266
1	1734	4267
1	1683	4268
1	1631	4269
1	1581	4270
1	1543	4271
1	1532	4272
1	1545	4273
1	1566	4274
1	1607	4275
1	1657	4276
1	1706	4277
1	1750	4278
1	1791	4279
1	1724	4320
1	1730	4321
1	1740	4322
1	1751	4323
1	1757	4324
1	1736	4325
1	1687	4326
1	1635	4327
1	1582	4328
1	1538	4329
1	1497	4330
1	1467	4331
1	1463	4332
1	1481	4333
1	1510	4334
1	1555	4335
1	1602	4336
1	1643	4337
1	1681	4338
1	1688	4339
1	1683	4340
1	1666	4341
1	1664	4342
1	1665	4343
1	1670	4344
1	1661	4345
1	1639	4346
1	1607	4347
1	1564	4348
1	1513	4349
1	1469	4350
1	1443	4351
1	1454	4352
1	1490	4353
1	1541	4354
1	1594	4355
1	1647	4356
1	1690	4357
1	1719	4358
1	1730	4359
1	1786	4380
1	1799	4381
1	1817	4382
1	1818	4383
1	1817	4384
1	1788	4385
1	1749	4386
1	1706	4387
1	1649	4388
1	1593	4389
1	1538	4390
1	1503	4391
1	1503	4392
1	1531	4393
1	1573	4394
1	1620	4395
1	1654	4396
1	1679	4397
1	1686	4398
1	1689	4399
1	1720	4360
1	1706	4361
1	1703	4362
1	1704	4363
1	1698	4364
1	1686	4365
1	1660	4366
1	1618	4367
1	1558	4368
1	1503	4369
1	1451	4370
1	1423	4371
1	1425	4372
1	1450	4373
1	1494	4374
1	1548	4375
1	1607	4376
1	1661	4377
1	1718	4378
1	1757	4379
1	1682	4400
1	1670	4401
1	1660	4402
1	1648	4403
1	1634	4404
1	1612	4405
1	1583	4406
1	1545	4407
1	1495	4408
1	1438	4409
1	1398	4410
1	1363	4411
1	1369	4412
1	1406	4413
1	1465	4414
1	1533	4415
1	1607	4416
1	1675	4417
1	1737	4418
1	1789	4419
1	1827	4420
1	1848	4421
1	1874	4422
1	1901	4423
1	1921	4424
1	1935	4425
1	1940	4426
1	1931	4427
1	1908	4428
1	1874	4429
1	1833	4430
1	1790	4431
1	1777	4432
1	1790	4433
1	1823	4434
1	1862	4435
1	1898	4436
1	1936	4437
1	1968	4438
1	1988	4439
1	1999	4440
1	2000	4441
1	2012	4442
1	2016	4443
1	2012	4444
1	1994	4445
1	1952	4446
1	1903	4447
1	1845	4448
1	1771	4449
1	1701	4450
1	1639	4451
1	1605	4452
1	1587	4453
1	1580	4454
1	1585	4455
1	1605	4456
1	1620	4457
1	1630	4458
1	1634	4459
1	1625	4460
1	1621	4461
1	1638	4462
1	1665	4463
1	1693	4464
1	1707	4465
1	1700	4466
1	1686	4467
1	1657	4468
1	1615	4469
1	1582	4470
1	1559	4471
1	1566	4472
1	1592	4473
1	1631	4474
1	1670	4475
1	1706	4476
1	1738	4477
1	1769	4478
1	1800	4479
1	1817	4480
1	1817	4481
1	1818	4482
1	1801	4483
1	1769	4484
1	1726	4485
1	1672	4486
1	1610	4487
1	1549	4488
1	1492	4489
1	1443	4490
1	1402	4491
1	1384	4492
1	1392	4493
1	1422	4494
1	1471	4495
1	1531	4496
1	1603	4497
1	1669	4498
1	1721	4499
1	1752	4500
1	1765	4501
1	1782	4502
1	1791	4503
1	1800	4504
1	1790	4505
1	1765	4506
1	1739	4507
1	1699	4508
1	1655	4509
1	1605	4510
1	1559	4511
1	1531	4512
1	1517	4513
1	1503	4514
1	1507	4515
1	1520	4516
1	1539	4517
1	1562	4518
1	1590	4519
1	1607	4520
1	1619	4521
1	1648	4522
1	1686	4523
1	1721	4524
1	1740	4525
1	1740	4526
1	1729	4527
1	1699	4528
1	1660	4529
1	1619	4530
1	1581	4531
1	1564	4532
1	1567	4533
1	1577	4534
1	1585	4535
1	1613	4536
1	1643	4537
1	1661	4538
1	1686	4539
1	1754	4560
1	1780	4561
1	1814	4562
1	1829	4563
1	1845	4564
1	1837	4565
1	1803	4566
1	1764	4567
1	1711	4568
1	1652	4569
1	1599	4570
1	1557	4571
1	1546	4572
1	1555	4573
1	1570	4574
1	1597	4575
1	1622	4576
1	1648	4577
1	1683	4578
1	1704	4579
1	1703	4540
1	1718	4541
1	1739	4542
1	1764	4543
1	1787	4544
1	1791	4545
1	1765	4546
1	1716	4547
1	1657	4548
1	1587	4549
1	1528	4550
1	1477	4551
1	1469	4552
1	1498	4553
1	1539	4554
1	1586	4555
1	1629	4556
1	1664	4557
1	1697	4558
1	1725	4559
1	1720	4580
1	1730	4581
1	1744	4582
1	1755	4583
1	1759	4584
1	1751	4585
1	1722	4586
1	1685	4587
1	1633	4588
1	1573	4589
1	1526	4590
1	1502	4591
1	1512	4592
1	1541	4593
1	1591	4594
1	1649	4595
1	1715	4596
1	1777	4597
1	1835	4598
1	1879	4599
1	1908	4600
1	1925	4601
1	1944	4602
1	1958	4603
1	1957	4604
1	1940	4605
1	1895	4606
1	1836	4607
1	1758	4608
1	1693	4609
1	1629	4610
1	1581	4611
1	1564	4612
1	1564	4613
1	1582	4614
1	1611	4615
1	1655	4616
1	1705	4617
1	1752	4618
1	1785	4619
1	1817	4620
1	1841	4621
1	1869	4622
1	1901	4623
1	1929	4624
1	1931	4625
1	1908	4626
1	1869	4627
1	1814	4628
1	1753	4629
1	1695	4630
1	1645	4631
1	1620	4632
1	1610	4633
1	1613	4634
1	1641	4635
1	1679	4636
1	1725	4637
1	1766	4638
1	1813	4639
1	1835	4640
1	1856	4641
1	1882	4642
1	1906	4643
1	1927	4644
1	1935	4645
1	1930	4646
1	1914	4647
1	1895	4648
1	1857	4649
1	1818	4650
1	1783	4651
1	1775	4652
1	1791	4653
1	1829	4654
1	1868	4655
1	1899	4656
1	1914	4657
1	1919	4658
1	1916	4659
1	1906	4660
1	1896	4661
1	1900	4662
1	1912	4663
1	1913	4664
1	1907	4665
1	1886	4666
1	1863	4667
1	1832	4668
1	1794	4669
1	1743	4670
1	1697	4671
1	1675	4672
1	1675	4673
1	1690	4674
1	1724	4675
1	1764	4676
1	1808	4677
1	1847	4678
1	1880	4679
1	1909	4680
1	1928	4681
1	1948	4682
1	1966	4683
1	1969	4684
1	1953	4685
1	1933	4686
1	1901	4687
1	1858	4688
1	1803	4689
1	1751	4690
1	1712	4691
1	1707	4692
1	1724	4693
1	1749	4694
1	1782	4695
1	1819	4696
1	1859	4697
1	1895	4698
1	1922	4699
1	1931	4700
1	1923	4701
1	1924	4702
1	1930	4703
1	1934	4704
1	1924	4705
1	1901	4706
1	1864	4707
1	1811	4708
1	1739	4709
1	1679	4710
1	1631	4711
1	1610	4712
1	1618	4713
1	1646	4714
1	1677	4715
1	1705	4716
1	1729	4717
1	1747	4718
1	1760	4719
1	1769	4720
1	1787	4721
1	1809	4722
1	1821	4723
1	1817	4724
1	1787	4725
1	1740	4726
1	1686	4727
1	1629	4728
1	1559	4729
1	1500	4730
1	1448	4731
1	1430	4732
1	1440	4733
1	1475	4734
1	1514	4735
1	1569	4736
1	1630	4737
1	1685	4738
1	1735	4739
1	1765	4740
1	1790	4741
1	1822	4742
1	1843	4743
1	1850	4744
1	1842	4745
1	1817	4746
1	1779	4747
1	1742	4748
1	1683	4749
1	1609	4750
1	1544	4751
1	1503	4752
1	1482	4753
1	1477	4754
1	1492	4755
1	1515	4756
1	1539	4757
1	1559	4758
1	1583	4759
1	1635	4780
1	1633	4781
1	1638	4782
1	1649	4783
1	1657	4784
1	1653	4785
1	1635	4786
1	1613	4787
1	1583	4788
1	1541	4789
1	1494	4790
1	1456	4791
1	1443	4792
1	1453	4793
1	1476	4794
1	1503	4795
1	1533	4796
1	1562	4797
1	1587	4798
1	1608	4799
1	1597	4760
1	1608	4761
1	1636	4762
1	1661	4763
1	1679	4764
1	1686	4765
1	1676	4766
1	1658	4767
1	1626	4768
1	1581	4769
1	1533	4770
1	1490	4771
1	1476	4772
1	1485	4773
1	1510	4774
1	1542	4775
1	1573	4776
1	1598	4777
1	1623	4778
1	1634	4779
1	1620	4800
1	1629	4801
1	1647	4802
1	1671	4803
1	1692	4804
1	1694	4805
1	1684	4806
1	1664	4807
1	1635	4808
1	1603	4809
1	1569	4810
1	1543	4811
1	1533	4812
1	1534	4813
1	1539	4814
1	1559	4815
1	1585	4816
1	1611	4817
1	1634	4818
1	1647	4819
1	1652	4820
1	1659	4821
1	1680	4822
1	1696	4823
1	1704	4824
1	1700	4825
1	1679	4826
1	1635	4827
1	1576	4828
1	1502	4829
1	1427	4830
1	1373	4831
1	1364	4832
1	1396	4833
1	1435	4834
1	1477	4835
1	1542	4836
1	1607	4837
1	1659	4838
1	1704	4839
1	1743	4840
1	1777	4841
1	1817	4842
1	1843	4843
1	1857	4844
1	1848	4845
1	1818	4846
1	1770	4847
1	1710	4848
1	1636	4849
1	1561	4850
1	1493	4851
1	1463	4852
1	1474	4853
1	1492	4854
1	1529	4855
1	1570	4856
1	1608	4857
1	1635	4858
1	1654	4859
1	1669	4860
1	1686	4861
1	1711	4862
1	1729	4863
1	1746	4864
1	1738	4865
1	1717	4866
1	1693	4867
1	1652	4868
1	1606	4869
1	1548	4870
1	1495	4871
1	1469	4872
1	1463	4873
1	1468	4874
1	1490	4875
1	1525	4876
1	1559	4877
1	1600	4878
1	1631	4879
1	1648	4880
1	1664	4881
1	1686	4882
1	1700	4883
1	1707	4884
1	1697	4885
1	1672	4886
1	1636	4887
1	1587	4888
1	1521	4889
1	1450	4890
1	1395	4891
1	1363	4892
1	1368	4893
1	1394	4894
1	1436	4895
1	1481	4896
1	1533	4897
1	1580	4898
1	1620	4899
1	1643	4900
1	1656	4901
1	1680	4902
1	1706	4903
1	1715	4904
1	1712	4905
1	1686	4906
1	1649	4907
1	1607	4908
1	1556	4909
1	1512	4910
1	1485	4911
1	1490	4912
1	1524	4913
1	1571	4914
1	1632	4915
1	1693	4916
1	1747	4917
1	1780	4918
1	1791	4919
1	1670	4940
1	1693	4941
1	1716	4942
1	1751	4943
1	1772	4944
1	1783	4945
1	1776	4946
1	1757	4947
1	1719	4948
1	1670	4949
1	1611	4950
1	1565	4951
1	1543	4952
1	1542	4953
1	1548	4954
1	1566	4955
1	1580	4956
1	1595	4957
1	1611	4958
1	1613	4959
1	1791	4920
1	1791	4921
1	1791	4922
1	1796	4923
1	1789	4924
1	1763	4925
1	1716	4926
1	1665	4927
1	1602	4928
1	1532	4929
1	1467	4930
1	1418	4931
1	1400	4932
1	1413	4933
1	1438	4934
1	1476	4935
1	1515	4936
1	1555	4937
1	1597	4938
1	1641	4939
1	1609	4960
1	1602	4961
1	1608	4962
1	1616	4963
1	1609	4964
1	1605	4965
1	1593	4966
1	1582	4967
1	1566	4968
1	1560	4969
1	1547	4970
1	1538	4971
1	1551	4972
1	1576	4973
1	1605	4974
1	1631	4975
1	1659	4976
1	1685	4977
1	1703	4978
1	1705	4979
1	1708	4980
1	1710	4981
1	1722	4982
1	1736	4983
1	1736	4984
1	1718	4985
1	1686	4986
1	1643	4987
1	1590	4988
1	1534	4989
1	1485	4990
1	1450	4991
1	1449	4992
1	1462	4993
1	1490	4994
1	1528	4995
1	1569	4996
1	1609	4997
1	1654	4998
1	1688	4999
1	1702	5000
1	1703	5001
1	1715	5002
1	1738	5003
1	1751	5004
1	1742	5005
1	1714	5006
1	1679	5007
1	1633	5008
1	1580	5009
1	1529	5010
1	1490	5011
1	1476	5012
1	1479	5013
1	1501	5014
1	1526	5015
1	1554	5016
1	1584	5017
1	1610	5018
1	1634	5019
1	1647	5020
1	1658	5021
1	1674	5022
1	1690	5023
1	1693	5024
1	1692	5025
1	1680	5026
1	1660	5027
1	1631	5028
1	1589	5029
1	1538	5030
1	1492	5031
1	1477	5032
1	1486	5033
1	1502	5034
1	1513	5035
1	1535	5036
1	1559	5037
1	1589	5038
1	1611	5039
1	1631	5040
1	1647	5041
1	1685	5042
1	1728	5043
1	1768	5044
1	1791	5045
1	1785	5046
1	1764	5047
1	1723	5048
1	1647	5049
1	1555	5050
1	1474	5051
1	1431	5052
1	1422	5053
1	1433	5054
1	1461	5055
1	1493	5056
1	1526	5057
1	1551	5058
1	1580	5059
1	1601	5060
1	1628	5061
1	1684	5062
1	1752	5063
1	1823	5064
1	1869	5065
1	1883	5066
1	1884	5067
1	1864	5068
1	1832	5069
1	1791	5070
1	1752	5071
1	1733	5072
1	1725	5073
1	1720	5074
1	1717	5075
1	1717	5076
1	1724	5077
1	1731	5078
1	1733	5079
1	1725	5080
1	1713	5081
1	1715	5082
1	1716	5083
1	1715	5084
1	1712	5085
1	1700	5086
1	1679	5087
1	1652	5088
1	1616	5089
1	1586	5090
1	1566	5091
1	1572	5092
1	1593	5093
1	1624	5094
1	1655	5095
1	1679	5096
1	1699	5097
1	1715	5098
1	1719	5099
1	1715	5100
1	1706	5101
1	1712	5102
1	1712	5103
1	1717	5104
1	1706	5105
1	1682	5106
1	1642	5107
1	1589	5108
1	1533	5109
1	1485	5110
1	1449	5111
1	1441	5112
1	1453	5113
1	1473	5114
1	1503	5115
1	1538	5116
1	1572	5117
1	1606	5118
1	1639	5119
1	1664	5120
1	1686	5121
1	1712	5122
1	1734	5123
1	1751	5124
1	1751	5125
1	1724	5126
1	1683	5127
1	1624	5128
1	1554	5129
1	1494	5130
1	1450	5131
1	1438	5132
1	1455	5133
1	1482	5134
1	1510	5135
1	1553	5136
1	1590	5137
1	1622	5138
1	1652	5139
1	1685	5140
1	1714	5141
1	1760	5142
1	1791	5143
1	1809	5144
1	1796	5145
1	1770	5146
1	1738	5147
1	1688	5148
1	1638	5149
1	1587	5150
1	1544	5151
1	1523	5152
1	1529	5153
1	1547	5154
1	1584	5155
1	1634	5156
1	1679	5157
1	1720	5158
1	1744	5159
1	1764	5160
1	1770	5161
1	1783	5162
1	1791	5163
1	1803	5164
1	1800	5165
1	1789	5166
1	1770	5167
1	1739	5168
1	1698	5169
1	1652	5170
1	1611	5171
1	1592	5172
1	1590	5173
1	1594	5174
1	1621	5175
1	1652	5176
1	1682	5177
1	1712	5178
1	1731	5179
1	1736	5180
1	1733	5181
1	1733	5182
1	1736	5183
1	1736	5184
1	1718	5185
1	1686	5186
1	1647	5187
1	1599	5188
1	1545	5189
1	1499	5190
1	1467	5191
1	1467	5192
1	1490	5193
1	1524	5194
1	1566	5195
1	1613	5196
1	1665	5197
1	1711	5198
1	1755	5199
1	1781	5200
1	1791	5201
1	1803	5202
1	1813	5203
1	1795	5204
1	1772	5205
1	1734	5206
1	1686	5207
1	1634	5208
1	1600	5209
1	1563	5210
1	1530	5211
1	1517	5212
1	1521	5213
1	1533	5214
1	1555	5215
1	1584	5216
1	1616	5217
1	1647	5218
1	1669	5219
1	1686	5220
1	1697	5221
1	1719	5222
1	1747	5223
1	1769	5224
1	1774	5225
1	1764	5226
1	1746	5227
1	1716	5228
1	1690	5229
1	1660	5230
1	1646	5231
1	1661	5232
1	1700	5233
1	1743	5234
1	1796	5235
1	1849	5236
1	1885	5237
1	1914	5238
1	1946	5239
1	1961	5240
1	1979	5241
1	2005	5242
1	2026	5243
1	2043	5244
1	2045	5245
1	2030	5246
1	2012	5247
1	1982	5248
1	1945	5249
1	1910	5250
1	1886	5251
1	1881	5252
1	1894	5253
1	1914	5254
1	1942	5255
1	1977	5256
1	1998	5257
1	2003	5258
1	1995	5259
1	1966	5260
1	1935	5261
1	1920	5262
1	1903	5263
1	1875	5264
1	1845	5265
1	1803	5266
1	1757	5267
1	1703	5268
1	1660	5269
1	1613	5270
1	1575	5271
1	1557	5272
1	1567	5273
1	1593	5274
1	1625	5275
1	1660	5276
1	1698	5277
1	1737	5278
1	1756	5279
1	1765	5280
1	1773	5281
1	1787	5282
1	1801	5283
1	1817	5284
1	1818	5285
1	1795	5286
1	1757	5287
1	1708	5288
1	1660	5289
1	1613	5290
1	1584	5291
1	1584	5292
1	1595	5293
1	1621	5294
1	1651	5295
1	1683	5296
1	1712	5297
1	1741	5298
1	1767	5299
1	1779	5300
1	1780	5301
1	1788	5302
1	1786	5303
1	1778	5304
1	1762	5305
1	1728	5306
1	1685	5307
1	1628	5308
1	1566	5309
1	1519	5310
1	1485	5311
1	1481	5312
1	1491	5313
1	1514	5314
1	1535	5315
1	1555	5316
1	1582	5317
1	1613	5318
1	1647	5319
1	1736	5340
1	1754	5341
1	1789	5342
1	1821	5343
1	1848	5344
1	1856	5345
1	1843	5346
1	1813	5347
1	1760	5348
1	1697	5349
1	1634	5350
1	1571	5351
1	1532	5352
1	1520	5353
1	1524	5354
1	1544	5355
1	1571	5356
1	1602	5357
1	1638	5358
1	1683	5359
1	1683	5320
1	1707	5321
1	1737	5322
1	1751	5323
1	1751	5324
1	1742	5325
1	1718	5326
1	1679	5327
1	1634	5328
1	1579	5329
1	1529	5330
1	1491	5331
1	1485	5332
1	1499	5333
1	1529	5334
1	1564	5335
1	1602	5336
1	1639	5337
1	1675	5338
1	1710	5339
1	1713	5360
1	1742	5361
1	1779	5362
1	1816	5363
1	1839	5364
1	1841	5365
1	1818	5366
1	1786	5367
1	1746	5368
1	1702	5369
1	1665	5370
1	1634	5371
1	1618	5372
1	1620	5373
1	1629	5374
1	1647	5375
1	1681	5376
1	1724	5377
1	1764	5378
1	1800	5379
1	1830	5380
1	1844	5381
1	1866	5382
1	1883	5383
1	1888	5384
1	1875	5385
1	1844	5386
1	1799	5387
1	1752	5388
1	1695	5389
1	1635	5390
1	1582	5391
1	1556	5392
1	1548	5393
1	1555	5394
1	1577	5395
1	1610	5396
1	1646	5397
1	1673	5398
1	1693	5399
1	1709	5400
1	1723	5401
1	1749	5402
1	1767	5403
1	1789	5404
1	1787	5405
1	1764	5406
1	1737	5407
1	1693	5408
1	1651	5409
1	1606	5410
1	1567	5411
1	1555	5412
1	1569	5413
1	1603	5414
1	1660	5415
1	1728	5416
1	1791	5417
1	1847	5418
1	1882	5419
1	1895	5420
1	1906	5421
1	1922	5422
1	1935	5423
1	1948	5424
1	1953	5425
1	1950	5426
1	1934	5427
1	1890	5428
1	1826	5429
1	1764	5430
1	1715	5431
1	1698	5432
1	1708	5433
1	1716	5434
1	1729	5435
1	1759	5436
1	1788	5437
1	1813	5438
1	1836	5439
1	1856	5440
1	1870	5441
1	1895	5442
1	1917	5443
1	1932	5444
1	1935	5445
1	1922	5446
1	1895	5447
1	1843	5448
1	1778	5449
1	1724	5450
1	1666	5451
1	1638	5452
1	1636	5453
1	1651	5454
1	1683	5455
1	1722	5456
1	1759	5457
1	1795	5458
1	1823	5459
1	1849	5460
1	1865	5461
1	1896	5462
1	1937	5463
1	1974	5464
1	1983	5465
1	1974	5466
1	1948	5467
1	1906	5468
1	1855	5469
1	1792	5470
1	1746	5471
1	1720	5472
1	1724	5473
1	1747	5474
1	1790	5475
1	1841	5476
1	1882	5477
1	1922	5478
1	1950	5479
1	1971	5480
1	1986	5481
1	2011	5482
1	2038	5483
1	2057	5484
1	2061	5485
1	2048	5486
1	2013	5487
1	1964	5488
1	1903	5489
1	1845	5490
1	1795	5491
1	1773	5492
1	1776	5493
1	1788	5494
1	1817	5495
1	1845	5496
1	1884	5497
1	1922	5498
1	1956	5499
1	1971	5500
1	1970	5501
1	1971	5502
1	1968	5503
1	1948	5504
1	1922	5505
1	1890	5506
1	1850	5507
1	1800	5508
1	1756	5509
1	1712	5510
1	1674	5511
1	1660	5512
1	1670	5513
1	1697	5514
1	1725	5515
1	1757	5516
1	1789	5517
1	1817	5518
1	1832	5519
1	1843	5520
1	1850	5521
1	1868	5522
1	1882	5523
1	1899	5524
1	1895	5525
1	1883	5526
1	1863	5527
1	1824	5528
1	1759	5529
1	1686	5530
1	1613	5531
1	1568	5532
1	1543	5533
1	1532	5534
1	1545	5535
1	1574	5536
1	1613	5537
1	1660	5538
1	1712	5539
1	1754	5540
1	1788	5541
1	1835	5542
1	1858	5543
1	1869	5544
1	1862	5545
1	1841	5546
1	1795	5547
1	1738	5548
1	1664	5549
1	1589	5550
1	1520	5551
1	1476	5552
1	1458	5553
1	1456	5554
1	1476	5555
1	1508	5556
1	1540	5557
1	1572	5558
1	1603	5559
1	1631	5560
1	1655	5561
1	1691	5562
1	1735	5563
1	1754	5564
1	1760	5565
1	1747	5566
1	1725	5567
1	1689	5568
1	1650	5569
1	1607	5570
1	1571	5571
1	1565	5572
1	1581	5573
1	1607	5574
1	1638	5575
1	1662	5576
1	1683	5577
1	1693	5578
1	1687	5579
1	1682	5580
1	1663	5581
1	1651	5582
1	1644	5583
1	1634	5584
1	1625	5585
1	1608	5586
1	1593	5587
1	1566	5588
1	1539	5589
1	1518	5590
1	1503	5591
1	1512	5592
1	1541	5593
1	1571	5594
1	1607	5595
1	1644	5596
1	1683	5597
1	1715	5598
1	1749	5599
1	1773	5600
1	1790	5601
1	1799	5602
1	1792	5603
1	1777	5604
1	1751	5605
1	1710	5606
1	1659	5607
1	1595	5608
1	1518	5609
1	1450	5610
1	1393	5611
1	1359	5612
1	1355	5613
1	1372	5614
1	1399	5615
1	1428	5616
1	1461	5617
1	1495	5618
1	1529	5619
1	1554	5620
1	1571	5621
1	1602	5622
1	1634	5623
1	1660	5624
1	1670	5625
1	1660	5626
1	1634	5627
1	1599	5628
1	1553	5629
1	1506	5630
1	1477	5631
1	1481	5632
1	1503	5633
1	1537	5634
1	1569	5635
1	1605	5636
1	1634	5637
1	1651	5638
1	1667	5639
1	1683	5640
1	1697	5641
1	1729	5642
1	1764	5643
1	1795	5644
1	1813	5645
1	1792	5646
1	1759	5647
1	1712	5648
1	1644	5649
1	1569	5650
1	1499	5651
1	1461	5652
1	1453	5653
1	1466	5654
1	1499	5655
1	1547	5656
1	1599	5657
1	1654	5658
1	1708	5659
1	1701	5680
1	1734	5681
1	1769	5682
1	1796	5683
1	1802	5684
1	1791	5685
1	1752	5686
1	1701	5687
1	1644	5688
1	1581	5689
1	1529	5690
1	1500	5691
1	1498	5692
1	1515	5693
1	1539	5694
1	1577	5695
1	1621	5696
1	1664	5697
1	1691	5698
1	1695	5699
1	1741	5660
1	1775	5661
1	1817	5662
1	1845	5663
1	1851	5664
1	1828	5665
1	1778	5666
1	1715	5667
1	1634	5668
1	1536	5669
1	1445	5670
1	1371	5671
1	1338	5672
1	1350	5673
1	1392	5674
1	1446	5675
1	1508	5676
1	1566	5677
1	1615	5678
1	1660	5679
1	1683	5700
1	1665	5701
1	1662	5702
1	1672	5703
1	1675	5704
1	1665	5705
1	1644	5706
1	1607	5707
1	1557	5708
1	1500	5709
1	1449	5710
1	1412	5711
1	1408	5712
1	1424	5713
1	1449	5714
1	1485	5715
1	1534	5716
1	1589	5717
1	1648	5718
1	1688	5719
1	1718	5720
1	1741	5721
1	1775	5722
1	1812	5723
1	1829	5724
1	1819	5725
1	1782	5726
1	1728	5727
1	1659	5728
1	1580	5729
1	1506	5730
1	1450	5731
1	1424	5732
1	1424	5733
1	1437	5734
1	1461	5735
1	1504	5736
1	1552	5737
1	1592	5738
1	1631	5739
1	1660	5740
1	1683	5741
1	1711	5742
1	1744	5743
1	1769	5744
1	1781	5745
1	1765	5746
1	1737	5747
1	1690	5748
1	1647	5749
1	1605	5750
1	1555	5751
1	1526	5752
1	1516	5753
1	1513	5754
1	1526	5755
1	1541	5756
1	1566	5757
1	1581	5758
1	1592	5759
1	1596	5760
1	1594	5761
1	1603	5762
1	1620	5763
1	1647	5764
1	1660	5765
1	1660	5766
1	1648	5767
1	1622	5768
1	1578	5769
1	1524	5770
1	1478	5771
1	1476	5772
1	1495	5773
1	1530	5774
1	1572	5775
1	1610	5776
1	1643	5777
1	1676	5778
1	1689	5779
1	1694	5780
1	1694	5781
1	1710	5782
1	1714	5783
1	1715	5784
1	1703	5785
1	1670	5786
1	1622	5787
1	1560	5788
1	1490	5789
1	1427	5790
1	1376	5791
1	1368	5792
1	1381	5793
1	1424	5794
1	1459	5795
1	1505	5796
1	1555	5797
1	1607	5798
1	1661	5799
1	1705	5800
1	1733	5801
1	1763	5802
1	1790	5803
1	1800	5804
1	1801	5805
1	1790	5806
1	1763	5807
1	1715	5808
1	1668	5809
1	1610	5810
1	1556	5811
1	1529	5812
1	1521	5813
1	1530	5814
1	1553	5815
1	1581	5816
1	1607	5817
1	1630	5818
1	1633	5819
1	1715	5840
1	1741	5841
1	1787	5842
1	1826	5843
1	1856	5844
1	1863	5845
1	1841	5846
1	1786	5847
1	1711	5848
1	1625	5849
1	1547	5850
1	1481	5851
1	1449	5852
1	1440	5853
1	1449	5854
1	1459	5855
1	1489	5856
1	1520	5857
1	1556	5858
1	1591	5859
1	1631	5820
1	1621	5821
1	1626	5822
1	1634	5823
1	1647	5824
1	1647	5825
1	1638	5826
1	1619	5827
1	1580	5828
1	1540	5829
1	1500	5830
1	1466	5831
1	1456	5832
1	1468	5833
1	1487	5834
1	1521	5835
1	1556	5836
1	1598	5837
1	1644	5838
1	1686	5839
1	1620	5860
1	1646	5861
1	1687	5862
1	1728	5863
1	1755	5864
1	1763	5865
1	1751	5866
1	1724	5867
1	1678	5868
1	1629	5869
1	1571	5870
1	1520	5871
1	1500	5872
1	1503	5873
1	1525	5874
1	1555	5875
1	1585	5876
1	1620	5877
1	1648	5878
1	1664	5879
1	1677	5880
1	1685	5881
1	1703	5882
1	1729	5883
1	1738	5884
1	1728	5885
1	1699	5886
1	1657	5887
1	1595	5888
1	1538	5889
1	1474	5890
1	1418	5891
1	1391	5892
1	1393	5893
1	1409	5894
1	1445	5895
1	1495	5896
1	1548	5897
1	1604	5898
1	1655	5899
1	1692	5900
1	1724	5901
1	1764	5902
1	1800	5903
1	1832	5904
1	1843	5905
1	1835	5906
1	1816	5907
1	1777	5908
1	1721	5909
1	1665	5910
1	1609	5911
1	1580	5912
1	1568	5913
1	1581	5914
1	1602	5915
1	1621	5916
1	1647	5917
1	1665	5918
1	1677	5919
1	1674	5920
1	1660	5921
1	1661	5922
1	1667	5923
1	1674	5924
1	1677	5925
1	1669	5926
1	1657	5927
1	1635	5928
1	1613	5929
1	1590	5930
1	1573	5931
1	1578	5932
1	1589	5933
1	1609	5934
1	1634	5935
1	1660	5936
1	1686	5937
1	1709	5938
1	1726	5939
1	1712	5980
1	1713	5981
1	1724	5982
1	1727	5983
1	1728	5984
1	1721	5985
1	1700	5986
1	1673	5987
1	1631	5988
1	1580	5989
1	1529	5990
1	1495	5991
1	1488	5992
1	1502	5993
1	1519	5994
1	1543	5995
1	1570	5996
1	1597	5997
1	1611	5998
1	1621	5999
1	1733	5940
1	1724	5941
1	1716	5942
1	1708	5943
1	1687	5944
1	1654	5945
1	1602	5946
1	1549	5947
1	1498	5948
1	1438	5949
1	1376	5950
1	1335	5951
1	1325	5952
1	1341	5953
1	1377	5954
1	1439	5955
1	1508	5956
1	1577	5957
1	1636	5958
1	1697	5959
1	1733	5960
1	1756	5961
1	1778	5962
1	1791	5963
1	1788	5964
1	1755	5965
1	1709	5966
1	1656	5967
1	1598	5968
1	1535	5969
1	1478	5970
1	1436	5971
1	1425	5972
1	1450	5973
1	1490	5974
1	1545	5975
1	1605	5976
1	1650	5977
1	1683	5978
1	1703	5979
1	1629	6000
1	1634	6001
1	1652	6002
1	1670	6003
1	1692	6004
1	1693	6005
1	1674	6006
1	1647	6007
1	1607	6008
1	1557	6009
1	1512	6010
1	1468	6011
1	1449	6012
1	1450	6013
1	1463	6014
1	1490	6015
1	1526	6016
1	1562	6017
1	1604	6018
1	1645	6019
1	1677	6020
1	1712	6021
1	1763	6022
1	1818	6023
1	1860	6024
1	1877	6025
1	1865	6026
1	1831	6027
1	1775	6028
1	1710	6029
1	1643	6030
1	1584	6031
1	1556	6032
1	1557	6033
1	1565	6034
1	1565	6035
1	1571	6036
1	1574	6037
1	1570	6038
1	1567	6039
1	1848	6060
1	1899	6061
1	1967	6062
1	2039	6063
1	2110	6064
1	2157	6065
1	2172	6066
1	2170	6067
1	2146	6068
1	2099	6069
1	2039	6070
1	1969	6071
1	1917	6072
1	1883	6073
1	1860	6074
1	1856	6075
1	1857	6076
1	1864	6077
1	1881	6078
1	1893	6079
1	1554	6040
1	1535	6041
1	1531	6042
1	1539	6043
1	1548	6044
1	1556	6045
1	1557	6046
1	1553	6047
1	1526	6048
1	1483	6049
1	1433	6050
1	1394	6051
1	1377	6052
1	1402	6053
1	1437	6054
1	1497	6055
1	1568	6056
1	1644	6057
1	1718	6058
1	1787	6059
1	1900	6080
1	1907	6081
1	1921	6082
1	1927	6083
1	1922	6084
1	1906	6085
1	1869	6086
1	1817	6087
1	1738	6088
1	1656	6089
1	1587	6090
1	1535	6091
1	1521	6092
1	1538	6093
1	1566	6094
1	1607	6095
1	1647	6096
1	1686	6097
1	1722	6098
1	1751	6099
1	1767	6100
1	1778	6101
1	1800	6102
1	1818	6103
1	1817	6104
1	1802	6105
1	1772	6106
1	1729	6107
1	1672	6108
1	1621	6109
1	1566	6110
1	1512	6111
1	1479	6112
1	1462	6113
1	1455	6114
1	1461	6115
1	1476	6116
1	1490	6117
1	1507	6118
1	1518	6119
1	1537	6120
1	1556	6121
1	1587	6122
1	1623	6123
1	1660	6124
1	1686	6125
1	1698	6126
1	1697	6127
1	1679	6128
1	1647	6129
1	1606	6130
1	1571	6131
1	1567	6132
1	1590	6133
1	1620	6134
1	1657	6135
1	1686	6136
1	1711	6137
1	1735	6138
1	1751	6139
1	1763	6140
1	1760	6141
1	1760	6142
1	1756	6143
1	1748	6144
1	1733	6145
1	1706	6146
1	1674	6147
1	1626	6148
1	1575	6149
1	1533	6150
1	1503	6151
1	1508	6152
1	1534	6153
1	1581	6154
1	1629	6155
1	1686	6156
1	1747	6157
1	1808	6158
1	1847	6159
1	1863	6160
1	1864	6161
1	1860	6162
1	1851	6163
1	1829	6164
1	1801	6165
1	1763	6166
1	1717	6167
1	1665	6168
1	1618	6169
1	1561	6170
1	1524	6171
1	1508	6172
1	1518	6173
1	1539	6174
1	1565	6175
1	1594	6176
1	1628	6177
1	1660	6178
1	1684	6179
1	1699	6180
1	1711	6181
1	1734	6182
1	1755	6183
1	1764	6184
1	1760	6185
1	1733	6186
1	1695	6187
1	1649	6188
1	1602	6189
1	1559	6190
1	1530	6191
1	1540	6192
1	1581	6193
1	1628	6194
1	1681	6195
1	1733	6196
1	1767	6197
1	1777	6198
1	1770	6199
1	1748	6200
1	1716	6201
1	1696	6202
1	1680	6203
1	1668	6204
1	1652	6205
1	1633	6206
1	1596	6207
1	1553	6208
1	1502	6209
1	1462	6210
1	1436	6211
1	1445	6212
1	1475	6213
1	1527	6214
1	1581	6215
1	1634	6216
1	1689	6217
1	1744	6218
1	1796	6219
1	1844	6220
1	1872	6221
1	1904	6222
1	1924	6223
1	1934	6224
1	1934	6225
1	1913	6226
1	1872	6227
1	1821	6228
1	1760	6229
1	1698	6230
1	1649	6231
1	1629	6232
1	1625	6233
1	1626	6234
1	1633	6235
1	1646	6236
1	1670	6237
1	1692	6238
1	1714	6239
1	1733	6240
1	1749	6241
1	1777	6242
1	1803	6243
1	1830	6244
1	1834	6245
1	1819	6246
1	1793	6247
1	1764	6248
1	1726	6249
1	1693	6250
1	1664	6251
1	1660	6252
1	1674	6253
1	1698	6254
1	1743	6255
1	1788	6256
1	1820	6257
1	1842	6258
1	1859	6259
1	1927	6300
1	1952	6301
1	1982	6302
1	2011	6303
1	2021	6304
1	2021	6305
1	2001	6306
1	1971	6307
1	1929	6308
1	1870	6309
1	1800	6310
1	1733	6311
1	1690	6312
1	1675	6313
1	1686	6314
1	1713	6315
1	1751	6316
1	1788	6317
1	1825	6318
1	1857	6319
1	1859	6300
1	1852	6301
1	1845	6302
1	1839	6303
1	1819	6304
1	1782	6305
1	1725	6306
1	1660	6307
1	1584	6308
1	1518	6309
1	1478	6310
1	1469	6311
1	1490	6312
1	1543	6313
1	1600	6314
1	1667	6315
1	1733	6316
1	1796	6317
1	1856	6318
1	1895	6319
1	1893	6300
1	1922	6301
1	1961	6302
1	1998	6303
1	2029	6304
1	2039	6305
1	2026	6306
1	1995	6307
1	1940	6308
1	1872	6309
1	1803	6310
1	1746	6311
1	1715	6312
1	1708	6313
1	1711	6314
1	1736	6315
1	1768	6316
1	1808	6317
1	1841	6318
1	1875	6319
1	1901	6320
1	1923	6321
1	1953	6322
1	1985	6323
1	2005	6324
1	2008	6325
1	1992	6326
1	1959	6327
1	1909	6328
1	1851	6329
1	1796	6330
1	1755	6331
1	1739	6332
1	1755	6333
1	1787	6334
1	1817	6335
1	1851	6336
1	1871	6337
1	1884	6338
1	1878	6339
1	1858	6340
1	1843	6341
1	1837	6342
1	1841	6343
1	1843	6344
1	1836	6345
1	1814	6346
1	1772	6347
1	1717	6348
1	1660	6349
1	1602	6350
1	1551	6351
1	1531	6352
1	1544	6353
1	1570	6354
1	1608	6355
1	1654	6356
1	1699	6357
1	1740	6358
1	1767	6359
1	1785	6360
1	1796	6361
1	1818	6362
1	1836	6363
1	1850	6364
1	1843	6365
1	1817	6366
1	1772	6367
1	1709	6368
1	1634	6369
1	1566	6370
1	1517	6371
1	1498	6372
1	1495	6373
1	1503	6374
1	1527	6375
1	1548	6376
1	1570	6377
1	1593	6378
1	1607	6379
1	1613	6380
1	1616	6381
1	1634	6382
1	1656	6383
1	1683	6384
1	1700	6385
1	1704	6386
1	1701	6387
1	1680	6388
1	1646	6389
1	1607	6390
1	1580	6391
1	1578	6392
1	1607	6393
1	1643	6394
1	1686	6395
1	1724	6396
1	1741	6397
1	1764	6398
1	1764	6399
1	1751	6400
1	1726	6401
1	1713	6402
1	1704	6403
1	1685	6404
1	1659	6405
1	1620	6406
1	1576	6407
1	1529	6408
1	1485	6409
1	1433	6410
1	1384	6411
1	1369	6412
1	1372	6413
1	1396	6414
1	1429	6415
1	1472	6416
1	1512	6417
1	1546	6418
1	1570	6419
1	1593	6420
1	1613	6421
1	1651	6422
1	1686	6423
1	1724	6424
1	1739	6425
1	1727	6426
1	1697	6427
1	1648	6428
1	1593	6429
1	1531	6430
1	1476	6431
1	1442	6432
1	1431	6433
1	1435	6434
1	1461	6435
1	1499	6436
1	1541	6437
1	1593	6438
1	1642	6439
1	1686	6440
1	1715	6441
1	1755	6442
1	1775	6443
1	1782	6444
1	1770	6445
1	1746	6446
1	1706	6447
1	1647	6448
1	1581	6449
1	1516	6450
1	1472	6451
1	1458	6452
1	1472	6453
1	1498	6454
1	1531	6455
1	1571	6456
1	1611	6457
1	1646	6458
1	1666	6459
1	1679	6460
1	1686	6461
1	1707	6462
1	1731	6463
1	1745	6464
1	1756	6465
1	1755	6466
1	1747	6467
1	1722	6468
1	1697	6469
1	1659	6470
1	1618	6471
1	1593	6472
1	1585	6473
1	1586	6474
1	1594	6475
1	1609	6476
1	1632	6477
1	1654	6478
1	1660	6479
1	1659	6480
1	1647	6481
1	1652	6482
1	1680	6483
1	1705	6484
1	1720	6485
1	1716	6486
1	1698	6487
1	1660	6488
1	1616	6489
1	1568	6490
1	1517	6491
1	1485	6492
1	1476	6493
1	1476	6494
1	1490	6495
1	1517	6496
1	1554	6497
1	1598	6498
1	1633	6499
1	1652	6500
1	1666	6501
1	1688	6502
1	1712	6503
1	1734	6504
1	1738	6505
1	1730	6506
1	1708	6507
1	1660	6508
1	1602	6509
1	1537	6510
1	1478	6511
1	1455	6512
1	1467	6513
1	1500	6514
1	1545	6515
1	1598	6516
1	1654	6517
1	1701	6518
1	1738	6519
1	1764	6520
1	1777	6521
1	1801	6522
1	1827	6523
1	1834	6524
1	1830	6525
1	1809	6526
1	1778	6527
1	1737	6528
1	1682	6529
1	1621	6530
1	1555	6531
1	1512	6532
1	1490	6533
1	1489	6534
1	1501	6535
1	1518	6536
1	1550	6537
1	1584	6538
1	1620	6539
1	1651	6540
1	1685	6541
1	1724	6542
1	1756	6543
1	1782	6544
1	1778	6545
1	1752	6546
1	1712	6547
1	1661	6548
1	1603	6549
1	1549	6550
1	1503	6551
1	1485	6552
1	1489	6553
1	1504	6554
1	1537	6555
1	1575	6556
1	1610	6557
1	1647	6558
1	1683	6559
1	1703	6560
1	1718	6561
1	1739	6562
1	1762	6563
1	1779	6564
1	1791	6565
1	1783	6566
1	1764	6567
1	1726	6568
1	1672	6569
1	1620	6570
1	1585	6571
1	1581	6572
1	1608	6573
1	1644	6574
1	1679	6575
1	1703	6576
1	1716	6577
1	1720	6578
1	1715	6579
1	1699	6580
1	1676	6581
1	1670	6582
1	1667	6583
1	1669	6584
1	1660	6585
1	1634	6586
1	1590	6587
1	1543	6588
1	1484	6589
1	1430	6590
1	1384	6591
1	1372	6592
1	1381	6593
1	1412	6594
1	1450	6595
1	1490	6596
1	1531	6597
1	1572	6598
1	1609	6599
1	1638	6600
1	1659	6601
1	1694	6602
1	1729	6603
1	1769	6604
1	1791	6605
1	1796	6606
1	1787	6607
1	1751	6608
1	1708	6609
1	1660	6610
1	1622	6611
1	1608	6612
1	1612	6613
1	1621	6614
1	1634	6615
1	1649	6616
1	1660	6617
1	1669	6618
1	1681	6619
1	1686	6620
1	1688	6621
1	1701	6622
1	1712	6623
1	1716	6624
1	1701	6625
1	1664	6626
1	1609	6627
1	1545	6628
1	1484	6629
1	1438	6630
1	1408	6631
1	1400	6632
1	1428	6633
1	1475	6634
1	1523	6635
1	1571	6636
1	1634	6637
1	1677	6638
1	1718	6639
1	1743	6640
1	1762	6641
1	1782	6642
1	1793	6643
1	1812	6644
1	1818	6645
1	1816	6646
1	1796	6647
1	1764	6648
1	1729	6649
1	1686	6650
1	1647	6651
1	1632	6652
1	1627	6653
1	1626	6654
1	1632	6655
1	1638	6656
1	1654	6657
1	1669	6658
1	1673	6659
1	1679	6660
1	1684	6661
1	1700	6662
1	1715	6663
1	1729	6664
1	1724	6665
1	1701	6666
1	1667	6667
1	1618	6668
1	1564	6669
1	1516	6670
1	1476	6671
1	1466	6672
1	1476	6673
1	1491	6674
1	1519	6675
1	1552	6676
1	1585	6677
1	1634	6678
1	1677	6679
1	1708	6680
1	1731	6681
1	1764	6682
1	1798	6683
1	1825	6684
1	1825	6685
1	1795	6686
1	1751	6687
1	1690	6688
1	1621	6689
1	1562	6690
1	1513	6691
1	1490	6692
1	1498	6693
1	1507	6694
1	1529	6695
1	1548	6696
1	1567	6697
1	1591	6698
1	1617	6699
1	1641	6700
1	1660	6701
1	1688	6702
1	1719	6703
1	1734	6704
1	1737	6705
1	1713	6706
1	1680	6707
1	1633	6708
1	1580	6709
1	1520	6710
1	1474	6711
1	1459	6712
1	1474	6713
1	1503	6714
1	1551	6715
1	1598	6716
1	1645	6717
1	1687	6718
1	1712	6719
1	1814	6740
1	1813	6741
1	1827	6742
1	1837	6743
1	1841	6744
1	1834	6745
1	1814	6746
1	1770	6747
1	1713	6748
1	1643	6749
1	1576	6750
1	1528	6751
1	1515	6752
1	1531	6753
1	1574	6754
1	1620	6755
1	1670	6756
1	1716	6757
1	1757	6758
1	1782	6759
1	1795	6760
1	1811	6761
1	1832	6762
1	1845	6763
1	1843	6764
1	1832	6765
1	1795	6766
1	1751	6767
1	1694	6768
1	1635	6769
1	1575	6770
1	1528	6771
1	1517	6772
1	1542	6773
1	1584	6774
1	1638	6775
1	1687	6776
1	1738	6777
1	1778	6778
1	1802	6779
1	1728	6720
1	1731	6721
1	1746	6722
1	1765	6723
1	1787	6724
1	1778	6725
1	1754	6726
1	1725	6727
1	1692	6728
1	1664	6729
1	1636	6730
1	1607	6731
1	1602	6732
1	1616	6733
1	1637	6734
1	1672	6735
1	1706	6736
1	1742	6737
1	1775	6738
1	1800	6739
1	1814	6780
1	1809	6781
1	1803	6782
1	1801	6783
1	1782	6784
1	1747	6785
1	1693	6786
1	1635	6787
1	1567	6788
1	1503	6789
1	1443	6790
1	1395	6791
1	1372	6792
1	1381	6793
1	1401	6794
1	1436	6795
1	1474	6796
1	1510	6797
1	1544	6798
1	1579	6799
1	1604	6800
1	1629	6801
1	1670	6802
1	1724	6803
1	1773	6804
1	1809	6805
1	1813	6806
1	1790	6807
1	1752	6808
1	1701	6809
1	1645	6810
1	1593	6811
1	1558	6812
1	1548	6813
1	1550	6814
1	1555	6815
1	1567	6816
1	1584	6817
1	1616	6818
1	1656	6819
1	1688	6820
1	1714	6821
1	1751	6822
1	1780	6823
1	1793	6824
1	1791	6825
1	1770	6826
1	1738	6827
1	1701	6828
1	1657	6829
1	1620	6830
1	1593	6831
1	1583	6832
1	1586	6833
1	1597	6834
1	1607	6835
1	1621	6836
1	1641	6837
1	1659	6838
1	1664	6839
1	1673	6840
1	1680	6841
1	1701	6842
1	1726	6843
1	1744	6844
1	1746	6845
1	1729	6846
1	1712	6847
1	1694	6848
1	1662	6849
1	1634	6850
1	1611	6851
1	1607	6852
1	1620	6853
1	1634	6854
1	1660	6855
1	1686	6856
1	1713	6857
1	1735	6858
1	1744	6859
1	1738	6860
1	1717	6861
1	1704	6862
1	1690	6863
1	1682	6864
1	1663	6865
1	1634	6866
1	1598	6867
1	1555	6868
1	1507	6869
1	1474	6870
1	1449	6871
1	1445	6872
1	1471	6873
1	1508	6874
1	1559	6875
1	1618	6876
1	1664	6877
1	1697	6878
1	1708	6879
1	1710	6880
1	1701	6881
1	1699	6882
1	1696	6883
1	1684	6884
1	1661	6885
1	1629	6886
1	1592	6887
1	1554	6888
1	1505	6889
1	1456	6890
1	1420	6891
1	1404	6892
1	1418	6893
1	1447	6894
1	1490	6895
1	1544	6896
1	1606	6897
1	1660	6898
1	1708	6899
1	1740	6900
1	1769	6901
1	1815	6902
1	1857	6903
1	1895	6904
1	1907	6905
1	1895	6906
1	1877	6907
1	1845	6908
1	1803	6909
1	1767	6910
1	1747	6911
1	1751	6912
1	1777	6913
1	1817	6914
1	1860	6915
1	1903	6916
1	1940	6917
1	1974	6918
1	2006	6919
1	2014	6920
1	2015	6921
1	2031	6922
1	2058	6923
1	2083	6924
1	2094	6925
1	2088	6926
1	2068	6927
1	2039	6928
1	1989	6929
1	1939	6930
1	1881	6931
1	1835	6932
1	1799	6933
1	1770	6934
1	1755	6935
1	1743	6936
1	1742	6937
1	1729	6938
1	1730	6939
1	1725	6940
1	1729	6941
1	1751	6942
1	1777	6943
1	1796	6944
1	1809	6945
1	1790	6946
1	1754	6947
1	1699	6948
1	1630	6949
1	1555	6950
1	1487	6951
1	1449	6952
1	1443	6953
1	1456	6954
1	1492	6955
1	1542	6956
1	1593	6957
1	1634	6958
1	1661	6959
1	1686	6960
1	1705	6961
1	1734	6962
1	1756	6963
1	1782	6964
1	1787	6965
1	1769	6966
1	1749	6967
1	1714	6968
1	1673	6969
1	1629	6970
1	1584	6971
1	1568	6972
1	1579	6973
1	1593	6974
1	1616	6975
1	1634	6976
1	1647	6977
1	1663	6978
1	1671	6979
1	1757	7000
1	1782	7001
1	1809	7002
1	1834	7003
1	1842	7004
1	1843	7005
1	1818	7006
1	1777	7007
1	1719	7008
1	1660	7009
1	1584	7010
1	1512	7011
1	1471	7012
1	1463	7013
1	1477	7014
1	1503	7015
1	1539	7016
1	1580	7017
1	1626	7018
1	1660	7019
1	1674	6980
1	1676	6981
1	1697	6982
1	1712	6983
1	1731	6984
1	1730	6985
1	1712	6986
1	1686	6987
1	1651	6988
1	1607	6989
1	1569	6990
1	1531	6991
1	1503	6992
1	1498	6993
1	1502	6994
1	1527	6995
1	1560	6996
1	1607	6997
1	1660	6998
1	1715	6999
1	1686	7020
1	1703	7021
1	1725	7022
1	1751	7023
1	1780	7024
1	1791	7025
1	1783	7026
1	1764	7027
1	1737	7028
1	1701	7029
1	1665	7030
1	1634	7031
1	1617	7032
1	1608	7033
1	1607	7034
1	1616	7035
1	1638	7036
1	1659	7037
1	1688	7038
1	1714	7039
1	1733	7040
1	1736	7041
1	1749	7042
1	1759	7043
1	1766	7044
1	1764	7045
1	1749	7046
1	1716	7047
1	1674	7048
1	1615	7049
1	1559	7050
1	1512	7051
1	1484	7052
1	1488	7053
1	1513	7054
1	1553	7055
1	1602	7056
1	1652	7057
1	1701	7058
1	1746	7059
1	1777	7060
1	1796	7061
1	1831	7062
1	1856	7063
1	1863	7064
1	1864	7065
1	1845	7066
1	1817	7067
1	1770	7068
1	1724	7069
1	1672	7070
1	1618	7071
1	1582	7072
1	1566	7073
1	1567	7074
1	1584	7075
1	1609	7076
1	1638	7077
1	1665	7078
1	1687	7079
1	1808	7100
1	1817	7101
1	1834	7102
1	1856	7103
1	1874	7104
1	1880	7105
1	1868	7106
1	1844	7107
1	1795	7108
1	1731	7109
1	1673	7110
1	1631	7111
1	1615	7112
1	1622	7113
1	1647	7114
1	1679	7115
1	1715	7116
1	1759	7117
1	1799	7118
1	1835	7119
1	1705	7080
1	1713	7081
1	1733	7082
1	1764	7083
1	1791	7084
1	1819	7085
1	1824	7086
1	1817	7087
1	1791	7088
1	1759	7089
1	1725	7090
1	1687	7091
1	1665	7092
1	1661	7093
1	1660	7094
1	1677	7095
1	1699	7096
1	1726	7097
1	1752	7098
1	1786	7099
1	1855	7120
1	1860	7121
1	1871	7122
1	1881	7123
1	1879	7124
1	1868	7125
1	1841	7126
1	1803	7127
1	1773	7128
1	1737	7129
1	1697	7130
1	1660	7131
1	1651	7132
1	1663	7133
1	1695	7134
1	1731	7135
1	1777	7136
1	1827	7137
1	1863	7138
1	1891	7139
1	1911	7140
1	1919	7141
1	1929	7142
1	1939	7143
1	1945	7144
1	1937	7145
1	1904	7146
1	1869	7147
1	1820	7148
1	1756	7149
1	1693	7150
1	1643	7151
1	1621	7152
1	1634	7153
1	1661	7154
1	1708	7155
1	1760	7156
1	1814	7157
1	1868	7158
1	1924	7159
1	1971	7160
1	2004	7161
1	2038	7162
1	2061	7163
1	2068	7164
1	2058	7165
1	2026	7166
1	1982	7167
1	1927	7168
1	1864	7169
1	1800	7170
1	1745	7171
1	1716	7172
1	1724	7173
1	1744	7174
1	1777	7175
1	1817	7176
1	1849	7177
1	1875	7178
1	1895	7179
1	1900	7180
1	1908	7181
1	1922	7182
1	1942	7183
1	1948	7184
1	1949	7185
1	1932	7186
1	1899	7187
1	1858	7188
1	1809	7189
1	1760	7190
1	1724	7191
1	1711	7192
1	1711	7193
1	1713	7194
1	1718	7195
1	1733	7196
1	1746	7197
1	1760	7198
1	1769	7199
1	1778	7200
1	1785	7201
1	1798	7202
1	1816	7203
1	1817	7204
1	1792	7205
1	1759	7206
1	1717	7207
1	1671	7208
1	1620	7209
1	1572	7210
1	1534	7211
1	1519	7212
1	1530	7213
1	1553	7214
1	1582	7215
1	1620	7216
1	1658	7217
1	1693	7218
1	1731	7219
1	1751	7220
1	1760	7221
1	1777	7222
1	1800	7223
1	1819	7224
1	1823	7225
1	1799	7226
1	1763	7227
1	1705	7228
1	1631	7229
1	1555	7230
1	1490	7231
1	1451	7232
1	1449	7233
1	1461	7234
1	1490	7235
1	1529	7236
1	1581	7237
1	1612	7238
1	1645	7239
1	1646	7240
1	1645	7241
1	1661	7242
1	1681	7243
1	1692	7244
1	1694	7245
1	1681	7246
1	1661	7247
1	1634	7248
1	1590	7249
1	1543	7250
1	1488	7251
1	1461	7252
1	1454	7253
1	1456	7254
1	1472	7255
1	1492	7256
1	1515	7257
1	1539	7258
1	1553	7259
1	1562	7260
1	1573	7261
1	1591	7262
1	1608	7263
1	1629	7264
1	1629	7265
1	1626	7266
1	1625	7267
1	1607	7268
1	1583	7269
1	1552	7270
1	1521	7271
1	1508	7272
1	1520	7273
1	1532	7274
1	1556	7275
1	1584	7276
1	1607	7277
1	1634	7278
1	1649	7279
1	1654	7280
1	1636	7281
1	1633	7282
1	1631	7283
1	1629	7284
1	1620	7285
1	1593	7286
1	1559	7287
1	1514	7288
1	1456	7289
1	1405	7290
1	1356	7291
1	1341	7292
1	1356	7293
1	1395	7294
1	1442	7295
1	1495	7296
1	1551	7297
1	1604	7298
1	1647	7299
1	1675	7300
1	1694	7301
1	1721	7302
1	1752	7303
1	1775	7304
1	1791	7305
1	1787	7306
1	1764	7307
1	1733	7308
1	1682	7309
1	1622	7310
1	1564	7311
1	1530	7312
1	1523	7313
1	1529	7314
1	1544	7315
1	1561	7316
1	1571	7317
1	1582	7318
1	1592	7319
1	1716	7340
1	1716	7341
1	1712	7342
1	1720	7343
1	1708	7344
1	1697	7345
1	1673	7346
1	1634	7347
1	1581	7348
1	1527	7349
1	1476	7350
1	1445	7351
1	1441	7352
1	1461	7353
1	1491	7354
1	1530	7355
1	1571	7356
1	1616	7357
1	1654	7358
1	1679	7359
1	1606	7320
1	1619	7321
1	1644	7322
1	1671	7323
1	1692	7324
1	1699	7325
1	1695	7326
1	1673	7327
1	1629	7328
1	1571	7329
1	1504	7330
1	1450	7331
1	1424	7332
1	1425	7333
1	1449	7334
1	1493	7335
1	1544	7336
1	1603	7337
1	1656	7338
1	1698	7339
1	1697	7360
1	1701	7361
1	1711	7362
1	1715	7363
1	1711	7364
1	1693	7365
1	1665	7366
1	1636	7367
1	1596	7368
1	1555	7369
1	1507	7370
1	1465	7371
1	1448	7372
1	1448	7373
1	1463	7374
1	1485	7375
1	1523	7376
1	1566	7377
1	1610	7378
1	1646	7379
1	1679	7380
1	1706	7381
1	1739	7382
1	1780	7383
1	1809	7384
1	1817	7385
1	1803	7386
1	1775	7387
1	1726	7388
1	1652	7389
1	1572	7390
1	1491	7391
1	1433	7392
1	1398	7393
1	1373	7394
1	1377	7395
1	1400	7396
1	1432	7397
1	1472	7398
1	1516	7399
1	1553	7400
1	1574	7401
1	1602	7402
1	1631	7403
1	1656	7404
1	1669	7405
1	1668	7406
1	1660	7407
1	1634	7408
1	1594	7409
1	1555	7410
1	1518	7411
1	1499	7412
1	1499	7413
1	1523	7414
1	1554	7415
1	1592	7416
1	1629	7417
1	1670	7418
1	1706	7419
1	1729	7420
1	1739	7421
1	1753	7422
1	1764	7423
1	1764	7424
1	1751	7425
1	1720	7426
1	1674	7427
1	1625	7428
1	1566	7429
1	1508	7430
1	1464	7431
1	1443	7432
1	1447	7433
1	1464	7434
1	1490	7435
1	1520	7436
1	1563	7437
1	1607	7438
1	1644	7439
1	1675	7440
1	1688	7441
1	1701	7442
1	1712	7443
1	1710	7444
1	1697	7445
1	1673	7446
1	1649	7447
1	1612	7448
1	1574	7449
1	1531	7450
1	1497	7451
1	1477	7452
1	1477	7453
1	1490	7454
1	1516	7455
1	1551	7456
1	1585	7457
1	1620	7458
1	1654	7459
1	1680	7460
1	1705	7461
1	1748	7462
1	1798	7463
1	1843	7464
1	1850	7465
1	1819	7466
1	1772	7467
1	1720	7468
1	1656	7469
1	1589	7470
1	1526	7471
1	1485	7472
1	1477	7473
1	1485	7474
1	1513	7475
1	1552	7476
1	1594	7477
1	1634	7478
1	1668	7479
1	1685	7480
1	1683	7481
1	1688	7482
1	1695	7483
1	1690	7484
1	1683	7485
1	1661	7486
1	1634	7487
1	1607	7488
1	1560	7489
1	1507	7490
1	1451	7491
1	1418	7492
1	1401	7493
1	1408	7494
1	1427	7495
1	1451	7496
1	1487	7497
1	1528	7498
1	1566	7499
1	1602	7500
1	1634	7501
1	1671	7502
1	1720	7503
1	1764	7504
1	1781	7505
1	1772	7506
1	1746	7507
1	1704	7508
1	1652	7509
1	1591	7510
1	1533	7511
1	1495	7512
1	1481	7513
1	1481	7514
1	1492	7515
1	1508	7516
1	1531	7517
1	1557	7518
1	1597	7519
1	1628	7520
1	1657	7521
1	1689	7522
1	1717	7523
1	1740	7524
1	1749	7525
1	1738	7526
1	1708	7527
1	1660	7528
1	1596	7529
1	1536	7530
1	1478	7531
1	1449	7532
1	1449	7533
1	1459	7534
1	1476	7535
1	1503	7536
1	1542	7537
1	1580	7538
1	1634	7539
1	1624	7560
1	1642	7561
1	1672	7562
1	1705	7563
1	1741	7564
1	1754	7565
1	1744	7566
1	1712	7567
1	1661	7568
1	1607	7569
1	1554	7570
1	1503	7571
1	1476	7572
1	1469	7573
1	1469	7574
1	1490	7575
1	1524	7576
1	1554	7577
1	1584	7578
1	1597	7579
1	1688	7540
1	1742	7541
1	1812	7542
1	1862	7543
1	1897	7544
1	1906	7545
1	1878	7546
1	1835	7547
1	1765	7548
1	1696	7549
1	1620	7550
1	1544	7551
1	1494	7552
1	1467	7553
1	1455	7554
1	1467	7555
1	1494	7556
1	1531	7557
1	1568	7558
1	1597	7559
1	1602	7580
1	1600	7581
1	1609	7582
1	1625	7583
1	1646	7584
1	1658	7585
1	1663	7586
1	1660	7587
1	1643	7588
1	1606	7589
1	1561	7590
1	1526	7591
1	1507	7592
1	1524	7593
1	1553	7594
1	1592	7595
1	1633	7596
1	1665	7597
1	1692	7598
1	1712	7599
1	1724	7600
1	1733	7601
1	1755	7602
1	1783	7603
1	1812	7604
1	1827	7605
1	1831	7606
1	1816	7607
1	1773	7608
1	1733	7609
1	1681	7610
1	1634	7611
1	1607	7612
1	1600	7613
1	1607	7614
1	1629	7615
1	1656	7616
1	1683	7617
1	1705	7618
1	1712	7619
1	1716	7620
1	1714	7621
1	1719	7622
1	1733	7623
1	1753	7624
1	1764	7625
1	1766	7626
1	1764	7627
1	1746	7628
1	1713	7629
1	1672	7630
1	1626	7631
1	1592	7632
1	1570	7633
1	1557	7634
1	1560	7635
1	1580	7636
1	1586	7637
1	1594	7638
1	1592	7639
1	1584	7640
1	1582	7641
1	1603	7642
1	1625	7643
1	1647	7644
1	1661	7645
1	1661	7646
1	1654	7647
1	1626	7648
1	1579	7649
1	1528	7650
1	1479	7651
1	1459	7652
1	1474	7653
1	1515	7654
1	1566	7655
1	1629	7656
1	1688	7657
1	1742	7658
1	1778	7659
1	1801	7660
1	1819	7661
1	1841	7662
1	1848	7663
1	1837	7664
1	1817	7665
1	1776	7666
1	1726	7667
1	1667	7668
1	1609	7669
1	1547	7670
1	1485	7671
1	1449	7672
1	1436	7673
1	1438	7674
1	1451	7675
1	1476	7676
1	1495	7677
1	1513	7678
1	1521	7679
1	1529	7680
1	1535	7681
1	1557	7682
1	1593	7683
1	1616	7684
1	1634	7685
1	1642	7686
1	1641	7687
1	1630	7688
1	1607	7689
1	1578	7690
1	1551	7691
1	1544	7692
1	1566	7693
1	1594	7694
1	1641	7695
1	1692	7696
1	1738	7697
1	1778	7698
1	1818	7699
1	1841	7700
1	1843	7701
1	1841	7702
1	1839	7703
1	1827	7704
1	1796	7705
1	1747	7706
1	1685	7707
1	1609	7708
1	1530	7709
1	1467	7710
1	1424	7711
1	1407	7712
1	1429	7713
1	1478	7714
1	1535	7715
1	1594	7716
1	1639	7717
1	1671	7718
1	1691	7719
1	1695	7720
1	1688	7721
1	1698	7722
1	1718	7723
1	1731	7724
1	1740	7725
1	1737	7726
1	1713	7727
1	1678	7728
1	1628	7729
1	1571	7730
1	1519	7731
1	1481	7732
1	1474	7733
1	1481	7734
1	1503	7735
1	1534	7736
1	1579	7737
1	1621	7738
1	1660	7739
1	1685	7740
1	1699	7741
1	1709	7742
1	1713	7743
1	1710	7744
1	1703	7745
1	1688	7746
1	1662	7747
1	1612	7748
1	1550	7749
1	1480	7750
1	1424	7751
1	1394	7752
1	1398	7753
1	1417	7754
1	1450	7755
1	1491	7756
1	1535	7757
1	1582	7758
1	1642	7759
1	1710	7800
1	1725	7801
1	1753	7802
1	1778	7803
1	1795	7804
1	1787	7805
1	1750	7806
1	1698	7807
1	1639	7808
1	1581	7809
1	1518	7810
1	1454	7811
1	1410	7812
1	1395	7813
1	1395	7814
1	1419	7815
1	1452	7816
1	1498	7817
1	1542	7818
1	1594	7819
1	1701	7760
1	1764	7761
1	1837	7762
1	1908	7763
1	1965	7764
1	1993	7765
1	1989	7766
1	1971	7767
1	1933	7768
1	1878	7769
1	1825	7770
1	1777	7771
1	1760	7772
1	1778	7773
1	1809	7774
1	1856	7775
1	1908	7776
1	1955	7777
1	1998	7778
1	2034	7779
1	2066	7780
1	2087	7781
1	2112	7782
1	2137	7783
1	2145	7784
1	2136	7785
1	2106	7786
1	2066	7787
1	2023	7788
1	1953	7789
1	1875	7790
1	1795	7791
1	1729	7792
1	1686	7793
1	1662	7794
1	1660	7795
1	1660	7796
1	1664	7797
1	1678	7798
1	1691	7799
1	1634	7820
1	1668	7821
1	1705	7822
1	1741	7823
1	1765	7824
1	1781	7825
1	1778	7826
1	1761	7827
1	1720	7828
1	1656	7829
1	1592	7830
1	1533	7831
1	1492	7832
1	1486	7833
1	1489	7834
1	1503	7835
1	1524	7836
1	1559	7837
1	1587	7838
1	1620	7839
1	1634	7840
1	1647	7841
1	1668	7842
1	1691	7843
1	1712	7844
1	1720	7845
1	1714	7846
1	1701	7847
1	1674	7848
1	1642	7849
1	1608	7850
1	1584	7851
1	1585	7852
1	1607	7853
1	1644	7854
1	1686	7855
1	1727	7856
1	1764	7857
1	1795	7858
1	1817	7859
1	1824	7860
1	1824	7861
1	1839	7862
1	1857	7863
1	1875	7864
1	1875	7865
1	1848	7866
1	1791	7867
1	1711	7868
1	1620	7869
1	1533	7870
1	1455	7871
1	1409	7872
1	1392	7873
1	1400	7874
1	1436	7875
1	1486	7876
1	1544	7877
1	1616	7878
1	1676	7879
1	1726	7880
1	1764	7881
1	1809	7882
1	1845	7883
1	1872	7884
1	1877	7885
1	1857	7886
1	1817	7887
1	1764	7888
1	1699	7889
1	1636	7890
1	1579	7891
1	1530	7892
1	1517	7893
1	1515	7894
1	1529	7895
1	1553	7896
1	1584	7897
1	1618	7898
1	1649	7899
1	1680	7900
1	1707	7901
1	1741	7902
1	1782	7903
1	1815	7904
1	1829	7905
1	1824	7906
1	1801	7907
1	1764	7908
1	1718	7909
1	1660	7910
1	1605	7911
1	1566	7912
1	1558	7913
1	1571	7914
1	1595	7915
1	1629	7916
1	1662	7917
1	1698	7918
1	1718	7919
1	1739	7920
1	1752	7921
1	1775	7922
1	1803	7923
1	1832	7924
1	1836	7925
1	1817	7926
1	1777	7927
1	1738	7928
1	1697	7929
1	1657	7930
1	1618	7931
1	1607	7932
1	1629	7933
1	1657	7934
1	1700	7935
1	1744	7936
1	1773	7937
1	1796	7938
1	1813	7939
1	1813	7940
1	1793	7941
1	1798	7942
1	1803	7943
1	1809	7944
1	1800	7945
1	1787	7946
1	1764	7947
1	1738	7948
1	1698	7949
1	1652	7950
1	1610	7951
1	1583	7952
1	1585	7953
1	1607	7954
1	1639	7955
1	1682	7956
1	1727	7957
1	1764	7958
1	1791	7959
1	1811	7960
1	1818	7961
1	1836	7962
1	1866	7963
1	1894	7964
1	1922	7965
1	1937	7966
1	1933	7967
1	1905	7968
1	1867	7969
1	1808	7970
1	1746	7971
1	1707	7972
1	1691	7973
1	1692	7974
1	1709	7975
1	1729	7976
1	1755	7977
1	1780	7978
1	1788	7979
1	1791	7980
1	1790	7981
1	1808	7982
1	1844	7983
1	1880	7984
1	1909	7985
1	1923	7986
1	1926	7987
1	1919	7988
1	1895	7989
1	1867	7990
1	1835	7991
1	1814	7992
1	1814	7993
1	1818	7994
1	1839	7995
1	1851	7996
1	1860	7997
1	1869	7998
1	1886	7999
1	1891	8000
1	1895	8000
1	1909	8002
1	1929	8003
1	1942	8004
1	1943	8005
1	1926	8006
1	1896	8007
1	1857	8008
1	1801	8009
1	1752	8010
1	1712	8011
1	1690	8012
1	1701	8013
1	1739	8013
1	1783	8015
1	1843	8016
1	1899	8016
1	1948	8018
1	1981	8019
1	1931	8040
1	1931	8041
1	1940	8042
1	1952	8043
1	1970	8044
1	1974	8045
1	1962	8045
1	1946	8047
1	1908	8048
1	1867	8048
1	1819	8050
1	1773	8051
1	1738	8052
1	1733	8053
1	1737	8054
1	1752	8055
1	1764	8056
1	1769	8057
1	1764	8058
1	1757	8059
1	2005	8020
1	2025	8021
1	2051	8022
1	2076	8023
1	2083	8024
1	2082	8025
1	2058	8026
1	2012	8027
1	1950	8028
1	1873	8029
1	1793	8029
1	1731	8031
1	1692	8032
1	1687	8032
1	1707	8034
1	1738	8035
1	1778	8036
1	1834	8037
1	1883	8038
1	1917	8039
1	1743	8060
1	1726	8061
1	1728	8061
1	1738	8063
1	1751	8064
1	1756	8064
1	1751	8066
1	1731	8067
1	1699	8068
1	1656	8069
1	1612	8070
1	1567	8071
1	1541	8072
1	1551	8073
1	1569	8074
1	1602	8074
1	1634	8076
1	1660	8077
1	1685	8077
1	1701	8079
1	1713	8080
1	1721	8080
1	1738	8082
1	1752	8083
1	1764	8084
1	1776	8085
1	1780	8086
1	1769	8087
1	1748	8088
1	1707	8089
1	1665	8090
1	1634	8090
1	1615	8092
1	1617	8093
1	1625	8093
1	1636	8095
1	1647	8096
1	1655	8096
1	1660	8098
1	1661	8099
1	1665	8100
1	1670	8101
1	1683	8102
1	1711	8103
1	1726	8104
1	1724	8105
1	1701	8106
1	1665	8106
1	1616	8108
1	1557	8109
1	1490	8109
1	1434	8111
1	1398	8112
1	1398	8113
1	1413	8114
1	1450	8115
1	1495	8116
1	1539	8117
1	1583	8118
1	1618	8119
1	1647	8120
1	1661	8121
1	1675	8122
1	1697	8122
1	1719	8124
1	1731	8125
1	1726	8125
1	1711	8127
1	1688	8128
1	1652	8129
1	1611	8130
1	1570	8131
1	1537	8132
1	1531	8133
1	1530	8134
1	1533	8135
1	1542	8136
1	1559	8137
1	1572	8138
1	1581	8138
1	1591	8140
1	1591	8141
1	1602	8141
1	1618	8143
1	1640	8144
1	1652	8145
1	1647	8146
1	1629	8147
1	1599	8148
1	1555	8149
1	1503	8150
1	1456	8151
1	1437	8152
1	1448	8153
1	1476	8154
1	1521	8154
1	1566	8156
1	1607	8157
1	1647	8157
1	1673	8159
1	1673	8180
1	1712	8181
1	1752	8182
1	1791	8183
1	1817	8184
1	1828	8185
1	1817	8186
1	1778	8186
1	1724	8188
1	1651	8189
1	1580	8189
1	1513	8191
1	1469	8192
1	1456	8193
1	1472	8194
1	1490	8195
1	1517	8196
1	1546	8197
1	1581	8198
1	1616	8199
1	1688	8160
1	1702	8161
1	1718	8162
1	1741	8163
1	1764	8164
1	1764	8165
1	1743	8166
1	1707	8167
1	1656	8168
1	1585	8169
1	1512	8170
1	1449	8170
1	1409	8172
1	1409	8173
1	1418	8173
1	1443	8175
1	1478	8176
1	1524	8177
1	1581	8178
1	1629	8179
1	1647	8200
1	1675	8201
1	1701	8202
1	1728	8203
1	1740	8204
1	1749	8205
1	1738	8206
1	1710	8207
1	1660	8208
1	1600	8209
1	1525	8210
1	1451	8211
1	1404	8212
1	1389	8213
1	1396	8214
1	1425	8215
1	1473	8216
1	1534	8217
1	1602	8218
1	1656	8219
1	1706	8220
1	1743	8221
1	1782	8222
1	1823	8223
1	1859	8224
1	1868	8225
1	1851	8226
1	1817	8227
1	1763	8228
1	1697	8229
1	1633	8230
1	1571	8231
1	1526	8232
1	1503	8233
1	1497	8234
1	1507	8235
1	1529	8236
1	1555	8237
1	1590	8238
1	1626	8239
1	1670	8240
1	1698	8241
1	1735	8242
1	1757	8243
1	1773	8244
1	1777	8245
1	1762	8246
1	1731	8247
1	1693	8248
1	1639	8249
1	1584	8250
1	1533	8251
1	1503	8252
1	1498	8253
1	1510	8254
1	1528	8255
1	1554	8256
1	1587	8257
1	1625	8258
1	1660	8259
1	1692	8260
1	1704	8261
1	1713	8262
1	1725	8263
1	1728	8264
1	1727	8265
1	1711	8266
1	1684	8267
1	1647	8268
1	1602	8269
1	1549	8270
1	1499	8271
1	1472	8272
1	1472	8273
1	1490	8274
1	1526	8275
1	1567	8276
1	1611	8277
1	1653	8278
1	1680	8279
1	1698	8280
1	1711	8281
1	1718	8282
1	1738	8283
1	1742	8284
1	1738	8285
1	1712	8286
1	1673	8287
1	1620	8288
1	1557	8289
1	1494	8290
1	1436	8291
1	1395	8292
1	1382	8293
1	1384	8294
1	1414	8295
1	1458	8296
1	1515	8297
1	1579	8298
1	1634	8299
1	1670	8300
1	1692	8301
1	1711	8302
1	1726	8303
1	1741	8304
1	1751	8305
1	1742	8306
1	1723	8307
1	1692	8308
1	1642	8309
1	1589	8310
1	1534	8311
1	1493	8312
1	1476	8313
1	1490	8314
1	1505	8315
1	1529	8316
1	1555	8317
1	1589	8318
1	1618	8319
1	1643	8320
1	1656	8321
1	1675	8322
1	1708	8323
1	1736	8324
1	1755	8325
1	1759	8326
1	1744	8327
1	1717	8328
1	1669	8329
1	1608	8330
1	1554	8331
1	1517	8332
1	1514	8333
1	1537	8334
1	1573	8335
1	1607	8336
1	1652	8337
1	1683	8338
1	1697	8339
1	1701	8340
1	1707	8341
1	1724	8342
1	1747	8343
1	1766	8344
1	1773	8345
1	1764	8346
1	1727	8347
1	1669	8348
1	1603	8349
1	1540	8350
1	1485	8351
1	1452	8352
1	1451	8353
1	1469	8354
1	1500	8355
1	1540	8356
1	1580	8357
1	1612	8358
1	1647	8359
1	1679	8360
1	1698	8361
1	1718	8362
1	1743	8363
1	1762	8364
1	1764	8365
1	1751	8366
1	1725	8367
1	1683	8368
1	1611	8369
1	1543	8370
1	1476	8371
1	1427	8372
1	1410	8373
1	1424	8374
1	1463	8375
1	1517	8376
1	1566	8377
1	1607	8378
1	1634	8379
1	1658	8380
1	1679	8381
1	1710	8382
1	1746	8383
1	1767	8384
1	1782	8385
1	1765	8386
1	1735	8387
1	1683	8388
1	1625	8389
1	1554	8390
1	1490	8391
1	1451	8392
1	1452	8393
1	1474	8394
1	1506	8395
1	1547	8396
1	1594	8397
1	1642	8398
1	1692	8399
1	1738	8400
1	1776	8401
1	1809	8402
1	1838	8403
1	1860	8404
1	1869	8405
1	1854	8406
1	1815	8407
1	1754	8408
1	1685	8409
1	1607	8410
1	1529	8411
1	1465	8412
1	1428	8413
1	1408	8414
1	1409	8415
1	1428	8416
1	1450	8417
1	1479	8418
1	1513	8419
1	1538	8420
1	1557	8421
1	1582	8422
1	1608	8423
1	1634	8424
1	1652	8425
1	1659	8426
1	1657	8427
1	1644	8428
1	1607	8429
1	1572	8430
1	1536	8431
1	1517	8432
1	1527	8433
1	1555	8434
1	1592	8435
1	1629	8436
1	1687	8437
1	1733	8438
1	1783	8439
1	1817	8440
1	1845	8441
1	1871	8442
1	1895	8443
1	1909	8444
1	1909	8445
1	1887	8446
1	1852	8447
1	1800	8448
1	1738	8449
1	1675	8450
1	1611	8451
1	1562	8452
1	1534	8453
1	1521	8454
1	1525	8455
1	1536	8456
1	1561	8457
1	1593	8458
1	1612	8459
1	1634	8460
1	1651	8461
1	1681	8462
1	1721	8463
1	1775	8464
1	1818	8465
1	1844	8466
1	1851	8467
1	1832	8468
1	1782	8469
1	1715	8470
1	1642	8471
1	1577	8472
1	1543	8473
1	1528	8474
1	1531	8475
1	1551	8476
1	1580	8477
1	1609	8478
1	1646	8479
1	1700	8500
1	1719	8501
1	1744	8502
1	1774	8503
1	1795	8504
1	1814	8505
1	1796	8506
1	1769	8507
1	1721	8508
1	1668	8509
1	1596	8510
1	1528	8511
1	1473	8512
1	1448	8513
1	1439	8514
1	1450	8515
1	1478	8516
1	1517	8517
1	1555	8518
1	1585	8519
1	1674	8480
1	1698	8481
1	1725	8482
1	1754	8483
1	1777	8484
1	1789	8485
1	1782	8486
1	1764	8487
1	1728	8488
1	1662	8489
1	1593	8490
1	1521	8491
1	1474	8492
1	1461	8493
1	1476	8494
1	1498	8495
1	1533	8496
1	1579	8497
1	1628	8498
1	1669	8499
1	1610	8520
1	1629	8521
1	1643	8522
1	1661	8523
1	1686	8524
1	1691	8525
1	1685	8526
1	1665	8527
1	1643	8528
1	1609	8529
1	1578	8530
1	1546	8531
1	1529	8532
1	1535	8533
1	1553	8534
1	1584	8535
1	1623	8536
1	1644	8537
1	1656	8538
1	1664	8539
1	1677	8540
1	1687	8541
1	1712	8542
1	1737	8543
1	1754	8544
1	1762	8545
1	1755	8546
1	1731	8547
1	1692	8548
1	1634	8549
1	1581	8550
1	1529	8551
1	1497	8552
1	1499	8553
1	1529	8554
1	1567	8555
1	1628	8556
1	1686	8557
1	1738	8558
1	1780	8559
1	1814	8560
1	1826	8561
1	1825	8562
1	1817	8563
1	1782	8564
1	1746	8565
1	1698	8566
1	1648	8567
1	1602	8568
1	1560	8569
1	1517	8570
1	1476	8571
1	1450	8572
1	1458	8573
1	1481	8574
1	1517	8575
1	1557	8576
1	1602	8577
1	1642	8578
1	1666	8579
1	1686	8580
1	1693	8581
1	1698	8582
1	1711	8583
1	1729	8584
1	1735	8585
1	1726	8586
1	1709	8587
1	1682	8588
1	1639	8589
1	1597	8590
1	1557	8591
1	1529	8592
1	1525	8593
1	1524	8594
1	1533	8595
1	1546	8596
1	1563	8597
1	1582	8598
1	1613	8599
1	1646	8600
1	1677	8601
1	1714	8602
1	1759	8603
1	1800	8604
1	1838	8605
1	1854	8606
1	1861	8607
1	1859	8608
1	1831	8609
1	1796	8610
1	1769	8611
1	1760	8612
1	1779	8613
1	1833	8614
1	1888	8615
1	1944	8616
1	1987	8617
1	2018	8618
1	2040	8619
1	2057	8620
1	2075	8621
1	2097	8622
1	2131	8623
1	2153	8624
1	2159	8625
1	2147	8626
1	2118	8627
1	2073	8628
1	2019	8629
1	1946	8630
1	1861	8631
1	1783	8632
1	1737	8633
1	1701	8634
1	1664	8635
1	1647	8636
1	1634	8637
1	1629	8638
1	1633	8639
1	1634	8640
1	1643	8641
1	1652	8642
1	1683	8643
1	1723	8644
1	1744	8645
1	1764	8646
1	1766	8647
1	1742	8648
1	1700	8649
1	1647	8650
1	1595	8651
1	1554	8652
1	1535	8653
1	1531	8654
1	1554	8655
1	1585	8656
1	1619	8657
1	1646	8658
1	1665	8659
1	1662	8660
1	1647	8661
1	1634	8662
1	1635	8663
1	1645	8664
1	1651	8665
1	1643	8666
1	1626	8667
1	1605	8668
1	1573	8669
1	1550	8670
1	1524	8671
1	1499	8672
1	1497	8673
1	1503	8674
1	1518	8675
1	1549	8676
1	1585	8677
1	1625	8678
1	1660	8679
1	1683	8680
1	1692	8681
1	1698	8682
1	1712	8683
1	1712	8684
1	1708	8685
1	1687	8686
1	1658	8687
1	1622	8688
1	1585	8689
1	1553	8690
1	1533	8691
1	1541	8692
1	1581	8693
1	1631	8694
1	1677	8695
1	1713	8696
1	1751	8697
1	1780	8698
1	1791	8699
1	1785	8700
1	1764	8701
1	1752	8702
1	1752	8703
1	1764	8704
1	1765	8705
1	1753	8706
1	1724	8707
1	1682	8708
1	1629	8709
1	1577	8710
1	1529	8711
1	1494	8712
1	1492	8713
1	1505	8714
1	1542	8715
1	1585	8716
1	1634	8717
1	1682	8718
1	1723	8719
1	1743	8740
1	1750	8741
1	1754	8742
1	1772	8743
1	1791	8744
1	1814	8745
1	1817	8746
1	1792	8747
1	1760	8748
1	1708	8749
1	1657	8750
1	1606	8751
1	1557	8752
1	1546	8753
1	1562	8754
1	1582	8755
1	1611	8756
1	1657	8757
1	1698	8758
1	1747	8759
1	1770	8740
1	1796	8741
1	1827	8742
1	1856	8743
1	1874	8744
1	1875	8745
1	1856	8746
1	1822	8747
1	1770	8748
1	1717	8749
1	1638	8750
1	1567	8751
1	1517	8752
1	1492	8753
1	1489	8754
1	1502	8755
1	1530	8756
1	1568	8757
1	1606	8758
1	1634	8759
1	1661	8760
1	1686	8761
1	1711	8762
1	1739	8763
1	1769	8764
1	1791	8765
1	1809	8766
1	1808	8767
1	1788	8768
1	1750	8769
1	1703	8770
1	1652	8771
1	1608	8772
1	1593	8773
1	1584	8774
1	1594	8775
1	1607	8776
1	1626	8777
1	1656	8778
1	1701	8779
1	1747	8780
1	1782	8781
1	1819	8782
1	1856	8783
1	1886	8784
1	1898	8785
1	1894	8786
1	1866	8787
1	1823	8788
1	1755	8789
1	1688	8790
1	1628	8791
1	1580	8792
1	1566	8793
1	1584	8794
1	1620	8795
1	1667	8796
1	1715	8797
1	1768	8798
1	1818	8799
1	1856	8800
1	1883	8801
1	1909	8802
1	1947	8803
1	1964	8804
1	1971	8805
1	1953	8806
1	1922	8807
1	1885	8808
1	1848	8809
1	1791	8810
1	1738	8811
1	1685	8812
1	1656	8813
1	1642	8814
1	1641	8815
1	1655	8816
1	1677	8817
1	1703	8818
1	1727	8819
1	1751	8820
1	1769	8821
1	1800	8822
1	1845	8823
1	1895	8824
1	1923	8825
1	1935	8826
1	1922	8827
1	1890	8828
1	1833	8829
1	1757	8830
1	1683	8831
1	1618	8832
1	1592	8833
1	1587	8834
1	1607	8835
1	1647	8836
1	1694	8837
1	1741	8838
1	1793	8839
1	1844	8840
1	1886	8841
1	1935	8842
1	1978	8843
1	2017	8844
1	2052	8845
1	2061	8846
1	2052	8847
1	2021	8848
1	1971	8849
1	1922	8850
1	1872	8851
1	1841	8852
1	1836	8853
1	1857	8854
1	1880	8855
1	1912	8856
1	1942	8857
1	1966	8858
1	1986	8859
1	2000	8860
1	2006	8861
1	2010	8862
1	2010	8863
1	1992	8864
1	1966	8865
1	1926	8866
1	1879	8867
1	1827	8868
1	1764	8869
1	1700	8870
1	1638	8871
1	1598	8872
1	1589	8873
1	1604	8874
1	1634	8875
1	1678	8876
1	1729	8877
1	1778	8878
1	1824	8879
1	1864	8880
1	1899	8881
1	1937	8882
1	1974	8883
1	2011	8884
1	2023	8885
1	2008	8886
1	1976	8887
1	1932	8888
1	1875	8889
1	1821	8890
1	1764	8891
1	1723	8892
1	1701	8893
1	1699	8894
1	1708	8895
1	1727	8896
1	1748	8897
1	1765	8898
1	1790	8899
1	1808	8900
1	1818	8901
1	1826	8902
1	1836	8903
1	1841	8904
1	1835	8905
1	1818	8906
1	1791	8907
1	1762	8908
1	1712	8909
1	1661	8910
1	1615	8911
1	1584	8912
1	1585	8913
1	1615	8914
1	1647	8915
1	1672	8916
1	1701	8917
1	1736	8918
1	1763	8919
1	1783	8920
1	1791	8921
1	1791	8922
1	1800	8923
1	1795	8924
1	1786	8925
1	1757	8926
1	1708	8927
1	1646	8928
1	1577	8929
1	1503	8930
1	1445	8931
1	1410	8932
1	1415	8933
1	1450	8934
1	1503	8935
1	1549	8936
1	1605	8937
1	1647	8938
1	1680	8939
1	1699	8940
1	1701	8941
1	1704	8942
1	1712	8943
1	1717	8944
1	1711	8945
1	1690	8946
1	1652	8947
1	1605	8948
1	1542	8949
1	1480	8950
1	1423	8951
1	1377	8952
1	1372	8953
1	1384	8954
1	1425	8955
1	1474	8956
1	1528	8957
1	1580	8958
1	1641	8959
1	1688	8960
1	1728	8961
1	1754	8962
1	1780	8963
1	1803	8964
1	1822	8965
1	1826	8966
1	1813	8967
1	1776	8968
1	1715	8969
1	1651	8970
1	1581	8971
1	1519	8972
1	1490	8973
1	1482	8974
1	1485	8975
1	1494	8976
1	1517	8977
1	1542	8978
1	1569	8979
1	1586	8980
1	1596	8981
1	1602	8982
1	1620	8983
1	1636	8984
1	1651	8985
1	1641	8986
1	1615	8987
1	1585	8988
1	1553	8989
1	1514	8990
1	1487	8991
1	1479	8992
1	1504	8993
1	1555	8994
1	1619	8995
1	1687	8996
1	1748	8997
1	1790	8998
1	1802	8999
1	1811	9000
1	1796	9001
1	1778	9002
1	1765	9003
1	1757	9004
1	1734	9005
1	1692	9006
1	1634	9007
1	1575	9008
1	1503	9009
1	1437	9010
1	1372	9011
1	1335	9012
1	1340	9013
1	1367	9014
1	1414	9015
1	1476	9016
1	1535	9017
1	1598	9018
1	1664	9019
1	1722	9020
1	1769	9021
1	1818	9022
1	1869	9023
1	1908	9024
1	1921	9025
1	1908	9026
1	1873	9027
1	1824	9028
1	1748	9029
1	1670	9030
1	1594	9031
1	1531	9032
1	1501	9033
1	1490	9034
1	1489	9035
1	1499	9036
1	1521	9037
1	1543	9038
1	1581	9039
1	1606	9040
1	1636	9041
1	1674	9042
1	1716	9043
1	1751	9044
1	1773	9045
1	1773	9046
1	1755	9047
1	1723	9048
1	1665	9049
1	1594	9050
1	1521	9051
1	1467	9052
1	1454	9053
1	1463	9054
1	1494	9055
1	1541	9056
1	1598	9057
1	1656	9058
1	1701	9059
1	1734	9060
1	1752	9061
1	1764	9062
1	1788	9063
1	1818	9064
1	1827	9065
1	1817	9066
1	1782	9067
1	1725	9068
1	1652	9069
1	1579	9070
1	1508	9071
1	1462	9072
1	1453	9073
1	1465	9074
1	1499	9075
1	1538	9076
1	1579	9077
1	1614	9078
1	1647	9079
1	1665	9080
1	1681	9081
1	1695	9082
1	1717	9083
1	1738	9084
1	1751	9085
1	1747	9086
1	1728	9087
1	1700	9088
1	1648	9089
1	1595	9090
1	1536	9091
1	1490	9092
1	1476	9093
1	1481	9094
1	1501	9095
1	1530	9096
1	1568	9097
1	1607	9098
1	1641	9099
1	1667	9100
1	1687	9101
1	1710	9102
1	1738	9103
1	1752	9104
1	1769	9105
1	1765	9106
1	1753	9107
1	1727	9108
1	1686	9109
1	1633	9110
1	1568	9111
1	1526	9112
1	1512	9113
1	1516	9114
1	1530	9115
1	1557	9116
1	1592	9117
1	1628	9118
1	1655	9119
1	1683	9120
1	1705	9121
1	1722	9122
1	1745	9123
1	1767	9124
1	1766	9125
1	1751	9126
1	1712	9127
1	1674	9128
1	1625	9129
1	1570	9130
1	1515	9131
1	1475	9132
1	1462	9133
1	1473	9134
1	1499	9135
1	1533	9136
1	1569	9137
1	1611	9138
1	1651	9139
1	1664	9140
1	1677	9141
1	1687	9142
1	1705	9143
1	1713	9144
1	1718	9145
1	1705	9146
1	1677	9147
1	1643	9148
1	1602	9149
1	1566	9150
1	1529	9151
1	1502	9152
1	1503	9153
1	1526	9154
1	1555	9155
1	1581	9156
1	1603	9157
1	1618	9158
1	1621	9159
1	1618	9160
1	1608	9161
1	1598	9162
1	1600	9163
1	1607	9164
1	1610	9165
1	1603	9166
1	1581	9167
1	1555	9168
1	1521	9169
1	1484	9170
1	1451	9171
1	1439	9172
1	1454	9173
1	1490	9174
1	1529	9175
1	1565	9176
1	1596	9177
1	1625	9178
1	1636	9179
1	1651	9180
1	1660	9181
1	1672	9182
1	1701	9183
1	1736	9184
1	1748	9185
1	1743	9186
1	1727	9187
1	1701	9188
1	1662	9189
1	1617	9190
1	1574	9191
1	1539	9192
1	1539	9193
1	1559	9194
1	1607	9195
1	1660	9196
1	1702	9197
1	1736	9198
1	1763	9199
1	1766	9200
1	1753	9201
1	1733	9202
1	1727	9203
1	1728	9204
1	1733	9205
1	1723	9206
1	1703	9207
1	1680	9208
1	1638	9209
1	1592	9210
1	1544	9211
1	1514	9212
1	1514	9213
1	1534	9214
1	1557	9215
1	1595	9216
1	1636	9217
1	1684	9218
1	1729	9219
1	1768	9220
1	1791	9221
1	1814	9222
1	1841	9223
1	1858	9224
1	1874	9225
1	1872	9226
1	1847	9227
1	1791	9228
1	1725	9229
1	1641	9230
1	1555	9231
1	1486	9232
1	1451	9233
1	1450	9234
1	1469	9235
1	1499	9236
1	1550	9237
1	1607	9238
1	1665	9239
1	1710	9240
1	1739	9241
1	1760	9242
1	1779	9243
1	1795	9244
1	1811	9245
1	1803	9246
1	1778	9247
1	1744	9248
1	1683	9249
1	1615	9250
1	1556	9251
1	1519	9252
1	1515	9253
1	1529	9254
1	1553	9255
1	1581	9256
1	1611	9257
1	1644	9258
1	1681	9259
1	1702	9260
1	1724	9261
1	1751	9262
1	1789	9263
1	1824	9264
1	1845	9265
1	1841	9266
1	1798	9267
1	1738	9268
1	1659	9269
1	1584	9270
1	1521	9271
1	1477	9272
1	1476	9273
1	1502	9274
1	1541	9275
1	1590	9276
1	1638	9277
1	1685	9278
1	1716	9279
1	1741	9280
1	1755	9281
1	1763	9282
1	1777	9283
1	1791	9284
1	1803	9285
1	1796	9286
1	1773	9287
1	1731	9288
1	1674	9289
1	1595	9290
1	1515	9291
1	1449	9292
1	1420	9293
1	1415	9294
1	1431	9295
1	1462	9296
1	1495	9297
1	1529	9298
1	1555	9299
1	1581	9300
1	1605	9301
1	1634	9302
1	1671	9303
1	1716	9304
1	1749	9305
1	1764	9306
1	1762	9307
1	1746	9308
1	1712	9309
1	1664	9310
1	1608	9311
1	1562	9312
1	1546	9313
1	1544	9314
1	1553	9315
1	1567	9316
1	1593	9317
1	1622	9318
1	1664	9319
1	1699	9320
1	1735	9321
1	1770	9322
1	1824	9323
1	1862	9324
1	1892	9325
1	1895	9326
1	1860	9327
1	1800	9328
1	1718	9329
1	1634	9330
1	1555	9331
1	1488	9332
1	1461	9333
1	1466	9334
1	1484	9335
1	1503	9336
1	1544	9337
1	1564	9338
1	1586	9339
1	1600	9340
1	1620	9341
1	1647	9342
1	1686	9343
1	1719	9344
1	1743	9345
1	1751	9346
1	1738	9347
1	1714	9348
1	1683	9349
1	1638	9350
1	1592	9351
1	1555	9352
1	1555	9353
1	1572	9354
1	1607	9355
1	1649	9356
1	1701	9357
1	1751	9358
1	1780	9359
1	1793	9360
1	1799	9361
1	1796	9362
1	1803	9363
1	1818	9364
1	1809	9365
1	1772	9366
1	1724	9367
1	1675	9368
1	1613	9369
1	1548	9370
1	1481	9371
1	1425	9372
1	1400	9373
1	1404	9374
1	1432	9375
1	1471	9376
1	1520	9377
1	1576	9378
1	1632	9379
1	1882	9400
1	1926	9401
1	1965	9402
1	2007	9403
1	2041	9404
1	2066	9405
1	2075	9406
1	2061	9407
1	2026	9408
1	1975	9409
1	1906	9410
1	1843	9411
1	1788	9412
1	1769	9413
1	1777	9414
1	1791	9415
1	1820	9416
1	1850	9417
1	1881	9418
1	1899	9419
1	1674	9380
1	1704	9381
1	1718	9382
1	1736	9383
1	1743	9384
1	1739	9385
1	1724	9386
1	1688	9387
1	1647	9388
1	1583	9389
1	1529	9390
1	1476	9391
1	1440	9392
1	1440	9393
1	1476	9394
1	1531	9395
1	1607	9396
1	1684	9397
1	1754	9398
1	1822	9399
1	1910	9420
1	1911	9421
1	1899	9422
1	1895	9423
1	1894	9424
1	1879	9425
1	1856	9426
1	1818	9427
1	1765	9428
1	1707	9429
1	1643	9430
1	1576	9431
1	1513	9432
1	1487	9433
1	1482	9434
1	1503	9435
1	1545	9436
1	1589	9437
1	1634	9438
1	1679	9439
1	1717	9440
1	1747	9441
1	1764	9442
1	1787	9443
1	1798	9444
1	1791	9445
1	1773	9446
1	1742	9447
1	1710	9448
1	1661	9449
1	1607	9450
1	1551	9451
1	1503	9452
1	1477	9453
1	1475	9454
1	1489	9455
1	1511	9456
1	1535	9457
1	1560	9458
1	1588	9459
1	1730	9480
1	1757	9481
1	1770	9482
1	1791	9483
1	1818	9484
1	1833	9485
1	1828	9486
1	1796	9487
1	1757	9488
1	1701	9489
1	1639	9490
1	1581	9491
1	1533	9492
1	1521	9493
1	1528	9494
1	1557	9495
1	1607	9496
1	1660	9497
1	1712	9498
1	1764	9499
1	1617	9460
1	1641	9461
1	1665	9462
1	1708	9463
1	1743	9464
1	1776	9465
1	1790	9466
1	1773	9467
1	1737	9468
1	1683	9469
1	1611	9470
1	1541	9471
1	1484	9472
1	1464	9473
1	1472	9474
1	1498	9475
1	1541	9476
1	1593	9477
1	1645	9478
1	1688	9479
1	1796	9500
1	1817	9501
1	1829	9502
1	1845	9503
1	1858	9504
1	1859	9505
1	1842	9506
1	1803	9507
1	1760	9508
1	1698	9509
1	1634	9510
1	1570	9511
1	1515	9512
1	1497	9513
1	1510	9514
1	1541	9515
1	1581	9516
1	1633	9517
1	1686	9518
1	1733	9519
1	1764	9520
1	1779	9521
1	1787	9522
1	1809	9523
1	1823	9524
1	1843	9525
1	1841	9526
1	1817	9527
1	1774	9528
1	1726	9529
1	1661	9530
1	1594	9531
1	1535	9532
1	1504	9533
1	1499	9534
1	1507	9535
1	1526	9536
1	1557	9537
1	1596	9538
1	1639	9539
1	1679	9540
1	1712	9541
1	1754	9542
1	1817	9543
1	1872	9544
1	1921	9545
1	1942	9546
1	1922	9547
1	1890	9548
1	1819	9549
1	1731	9550
1	1641	9551
1	1566	9552
1	1528	9553
1	1512	9554
1	1514	9555
1	1530	9556
1	1560	9557
1	1602	9558
1	1647	9559
1	1686	9560
1	1718	9561
1	1747	9562
1	1783	9563
1	1817	9564
1	1841	9565
1	1843	9566
1	1826	9567
1	1787	9568
1	1729	9569
1	1661	9570
1	1598	9571
1	1553	9572
1	1531	9573
1	1541	9574
1	1567	9575
1	1610	9576
1	1663	9577
1	1721	9578
1	1770	9579
1	1816	9580
1	1843	9581
1	1860	9582
1	1890	9583
1	1908	9584
1	1922	9585
1	1914	9586
1	1883	9587
1	1843	9588
1	1791	9589
1	1729	9590
1	1674	9591
1	1634	9592
1	1626	9593
1	1641	9594
1	1664	9595
1	1689	9596
1	1717	9597
1	1752	9598
1	1778	9599
1	1811	9600
1	1836	9601
1	1856	9602
1	1890	9603
1	1924	9604
1	1949	9605
1	1958	9606
1	1953	9607
1	1937	9608
1	1901	9609
1	1856	9610
1	1791	9611
1	1741	9612
1	1720	9613
1	1719	9614
1	1731	9615
1	1747	9616
1	1763	9617
1	1773	9618
1	1791	9619
1	1799	9620
1	1796	9621
1	1791	9622
1	1801	9623
1	1817	9624
1	1823	9625
1	1826	9626
1	1818	9627
1	1816	9628
1	1790	9629
1	1764	9630
1	1738	9631
1	1716	9632
1	1723	9633
1	1760	9634
1	1803	9635
1	1840	9636
1	1882	9637
1	1909	9638
1	1942	9639
1	1970	9640
1	1989	9641
1	2009	9642
1	2032	9643
1	2049	9644
1	2052	9645
1	2031	9646
1	2003	9647
1	1969	9648
1	1924	9649
1	1882	9650
1	1831	9651
1	1780	9652
1	1751	9653
1	1749	9654
1	1764	9655
1	1791	9656
1	1827	9657
1	1856	9658
1	1883	9659
1	1910	9660
1	1931	9661
1	1942	9662
1	1963	9663
1	1992	9664
1	2000	9665
1	1992	9666
1	1959	9667
1	1917	9668
1	1864	9669
1	1800	9670
1	1737	9671
1	1680	9672
1	1658	9673
1	1660	9674
1	1686	9675
1	1724	9676
1	1770	9677
1	1819	9678
1	1864	9679
1	1891	9680
1	1905	9681
1	1913	9682
1	1930	9683
1	1940	9684
1	1945	9685
1	1924	9686
1	1893	9687
1	1841	9688
1	1766	9689
1	1706	9690
1	1655	9691
1	1620	9692
1	1616	9693
1	1634	9694
1	1657	9695
1	1686	9696
1	1718	9697
1	1751	9698
1	1778	9699
1	1800	9700
1	1821	9701
1	1831	9702
1	1856	9703
1	1872	9704
1	1886	9705
1	1881	9706
1	1856	9707
1	1815	9708
1	1755	9709
1	1687	9710
1	1623	9711
1	1568	9712
1	1542	9713
1	1543	9714
1	1562	9715
1	1587	9716
1	1620	9717
1	1651	9718
1	1673	9719
1	1693	9720
1	1711	9721
1	1729	9722
1	1761	9723
1	1791	9724
1	1811	9725
1	1809	9726
1	1791	9727
1	1764	9728
1	1724	9729
1	1678	9730
1	1626	9731
1	1585	9732
1	1579	9733
1	1580	9734
1	1597	9735
1	1624	9736
1	1646	9737
1	1664	9738
1	1685	9739
1	1686	9740
1	1674	9741
1	1665	9742
1	1667	9743
1	1664	9744
1	1660	9745
1	1646	9746
1	1616	9747
1	1580	9748
1	1526	9749
1	1463	9750
1	1400	9751
1	1345	9752
1	1330	9753
1	1344	9754
1	1384	9755
1	1449	9756
1	1521	9757
1	1581	9758
1	1628	9759
1	1660	9760
1	1685	9761
1	1698	9762
1	1718	9763
1	1730	9764
1	1733	9765
1	1726	9766
1	1712	9767
1	1690	9768
1	1661	9769
1	1629	9770
1	1581	9771
1	1542	9772
1	1527	9773
1	1526	9774
1	1538	9775
1	1561	9776
1	1597	9777
1	1634	9778
1	1659	9779
1	1684	9780
1	1701	9781
1	1713	9782
1	1736	9783
1	1752	9784
1	1755	9785
1	1742	9786
1	1713	9787
1	1674	9788
1	1620	9789
1	1567	9790
1	1518	9791
1	1480	9792
1	1476	9793
1	1490	9794
1	1529	9795
1	1581	9796
1	1634	9797
1	1686	9798
1	1728	9799
1	1747	9800
1	1757	9801
1	1751	9802
1	1764	9803
1	1780	9804
1	1792	9805
1	1791	9806
1	1777	9807
1	1754	9808
1	1712	9809
1	1660	9810
1	1598	9811
1	1539	9812
1	1503	9813
1	1490	9814
1	1490	9815
1	1503	9816
1	1521	9817
1	1542	9818
1	1564	9819
1	1580	9820
1	1595	9821
1	1607	9822
1	1639	9823
1	1664	9824
1	1686	9825
1	1701	9826
1	1710	9827
1	1710	9828
1	1700	9829
1	1665	9830
1	1625	9831
1	1585	9832
1	1571	9833
1	1571	9834
1	1585	9835
1	1607	9836
1	1631	9837
1	1652	9838
1	1662	9839
1	1668	9840
1	1667	9841
1	1665	9842
1	1679	9843
1	1686	9844
1	1682	9845
1	1673	9846
1	1654	9847
1	1639	9848
1	1613	9849
1	1580	9850
1	1538	9851
1	1501	9852
1	1484	9853
1	1485	9854
1	1503	9855
1	1529	9856
1	1557	9857
1	1589	9858
1	1623	9859
1	1638	9860
1	1648	9861
1	1659	9862
1	1685	9863
1	1712	9864
1	1737	9865
1	1746	9866
1	1738	9867
1	1715	9868
1	1664	9869
1	1615	9870
1	1566	9871
1	1532	9872
1	1528	9873
1	1546	9874
1	1577	9875
1	1607	9876
1	1638	9877
1	1672	9878
1	1703	9879
1	1735	9880
1	1754	9881
1	1765	9882
1	1788	9883
1	1796	9884
1	1800	9885
1	1790	9886
1	1753	9887
1	1702	9888
1	1639	9889
1	1569	9890
1	1503	9891
1	1450	9892
1	1425	9893
1	1426	9894
1	1446	9895
1	1476	9896
1	1517	9897
1	1561	9898
1	1602	9899
1	1639	9900
1	1674	9901
1	1699	9902
1	1738	9903
1	1775	9904
1	1792	9905
1	1791	9906
1	1775	9907
1	1750	9908
1	1711	9909
1	1662	9910
1	1617	9911
1	1577	9912
1	1557	9913
1	1561	9914
1	1585	9915
1	1618	9916
1	1641	9917
1	1652	9918
1	1656	9919
1	1646	9920
1	1634	9921
1	1621	9922
1	1632	9923
1	1645	9924
1	1655	9925
1	1656	9926
1	1642	9927
1	1625	9928
1	1583	9929
1	1542	9930
1	1499	9931
1	1462	9932
1	1452	9933
1	1476	9934
1	1507	9935
1	1548	9936
1	1594	9937
1	1633	9938
1	1660	9939
1	1686	9940
1	1705	9941
1	1715	9942
1	1738	9943
1	1757	9944
1	1773	9945
1	1777	9946
1	1753	9947
1	1711	9948
1	1646	9949
1	1577	9950
1	1503	9951
1	1439	9952
1	1409	9953
1	1405	9954
1	1423	9955
1	1453	9956
1	1494	9957
1	1542	9958
1	1581	9959
1	1616	9960
1	1650	9961
1	1676	9962
1	1712	9963
1	1752	9964
1	1779	9965
1	1788	9966
1	1774	9967
1	1746	9968
1	1702	9969
1	1652	9970
1	1594	9971
1	1539	9972
1	1507	9973
1	1503	9974
1	1528	9975
1	1571	9976
1	1620	9977
1	1662	9978
1	1710	9979
1	1742	9980
1	1765	9981
1	1788	9982
1	1820	9983
1	1848	9984
1	1859	9985
1	1852	9986
1	1823	9987
1	1782	9988
1	1723	9989
1	1659	9990
1	1595	9991
1	1539	9992
1	1508	9993
1	1505	9994
1	1514	9995
1	1538	9996
1	1568	9997
1	1598	9998
1	1621	9999
1	1643	10000
1	1659	10001
1	1665	10002
1	1691	10003
1	1711	10004
1	1728	10005
1	1727	10006
1	1710	10007
1	1686	10008
1	1652	10009
1	1608	10010
1	1557	10011
1	1503	10012
1	1477	10013
1	1475	10014
1	1486	10015
1	1512	10016
1	1546	10017
1	1593	10018
1	1634	10019
1	1679	10020
1	1716	10021
1	1746	10022
1	1775	10023
1	1803	10024
1	1824	10025
1	1832	10026
1	1825	10027
1	1795	10028
1	1742	10029
1	1671	10030
1	1592	10031
1	1518	10032
1	1476	10033
1	1455	10034
1	1466	10035
1	1490	10036
1	1517	10037
1	1555	10038
1	1587	10039
1	1623	10040
1	1651	10041
1	1683	10042
1	1718	10043
1	1763	10044
1	1800	10045
1	1820	10046
1	1831	10047
1	1824	10048
1	1800	10049
1	1774	10050
1	1741	10051
1	1710	10052
1	1695	10053
1	1691	10054
1	1706	10055
1	1713	10056
1	1727	10057
1	1738	10058
1	1749	10059
1	1752	10060
1	1752	10061
1	1740	10062
1	1740	10063
1	1740	10064
1	1744	10065
1	1738	10066
1	1719	10067
1	1687	10068
1	1647	10069
1	1589	10070
1	1529	10071
1	1477	10072
1	1459	10073
1	1471	10074
1	1503	10075
1	1547	10076
1	1590	10077
1	1633	10078
1	1660	10079
1	1690	10080
1	1714	10081
1	1734	10082
1	1755	10083
1	1780	10084
1	1802	10085
1	1814	10086
1	1796	10087
1	1779	10088
1	1744	10089
1	1697	10090
1	1634	10091
1	1572	10092
