#Date:= 2024-10-08T16:09:24.575492
#Sampling Rate(Hz):= 1000
#Labels:= LOD	ECG	TS
1	1724	20
1	1721	21
1	1720	22
1	1724	23
1	1725	24
1	1724	25
1	1724	26
1	2038	27
1	2039	28
1	2053	29
1	2066	30
1	2071	31
1	2067	32
1	2061	33
1	2041	34
1	2008	35
1	1974	36
1	1944	37
1	1916	38
1	1895	39
1	1886	40
1	1883	41
1	1881	42
1	1895	43
1	1926	44
1	1967	45
1	2005	46
1	2048	47
1	2079	48
1	2108	49
1	2135	50
1	2153	51
1	2161	52
1	2163	53
1	2156	54
1	2131	55
1	2094	56
1	2054	57
1	2021	58
1	1988	59
1	1953	60
1	1920	61
1	1891	62
1	1880	63
1	1897	64
1	1937	65
1	1975	66
1	2008	67
1	2030	68
1	2052	69
1	2063	70
1	2066	71
1	2070	72
1	2070	73
1	2061	74
1	2045	75
1	2023	76
1	2000	77
1	1982	78
1	1958	79
1	1940	80
1	1933	81
1	1945	82
1	1967	83
1	2001	84
1	2048	85
1	2091	86
1	2129	87
1	2150	88
1	2158	89
1	2157	90
1	2153	91
1	2131	92
1	2093	93
1	2041	94
1	1973	95
1	1926	96
1	1893	97
1	1873	98
1	1871	99
1	1887	100
1	1904	101
1	1922	102
1	1948	103
1	1974	104
1	2001	105
1	2043	106
1	2088	107
1	2131	108
1	2158	109
1	2176	110
1	2179	111
1	2168	112
1	2149	113
1	2123	114
1	2095	115
1	2064	116
1	2031	117
1	2011	118
1	1994	119
1	1983	120
1	1971	121
1	1958	122
1	1950	123
1	1960	124
1	1985	125
1	2009	126
1	2018	127
1	2013	128
1	2002	129
1	1987	130
1	1968	131
1	1948	132
1	1922	133
1	1897	134
1	1874	135
1	1849	136
1	1836	137
1	1841	138
1	1856	139
1	1891	140
1	1932	141
1	1970	142
1	2001	143
1	2025	144
1	2047	145
1	2067	146
1	2086	147
1	2103	148
1	2109	149
1	2105	150
1	2087	151
1	2068	152
1	2052	153
1	2040	154
1	2027	155
1	2014	156
1	2004	157
1	1999	158
1	2000	159
1	2006	160
1	2012	161
1	2017	162
1	2026	163
1	2025	164
1	2026	165
1	2029	166
1	2034	167
1	2028	168
1	2022	169
1	2016	170
1	2014	171
1	2013	172
1	2009	173
1	2000	174
1	1988	175
1	1970	176
1	1940	177
1	1922	178
1	1911	179
1	1916	180
1	1924	181
1	1940	182
1	1952	183
1	1967	184
1	1985	185
1	2010	186
1	2035	187
1	2050	188
1	2066	189
1	2073	190
1	2071	191
1	2061	192
1	2047	193
1	2021	194
1	1990	195
1	1962	196
1	1935	197
1	1916	198
1	1896	199
1	1888	200
1	1888	201
1	1890	202
1	1895	203
1	1904	204
1	1925	205
1	1952	206
1	1967	207
1	1975	208
1	1963	209
1	1948	210
1	1924	211
1	1906	212
1	1895	213
1	1906	214
1	1935	215
1	1965	216
1	1986	217
1	2009	218
1	2025	219
1	2024	220
1	2014	221
1	1999	222
1	1986	223
1	1967	224
1	1949	225
1	1930	226
1	1913	227
1	1906	228
1	1922	229
1	1921	230
1	1929	231
1	1924	232
1	1928	233
1	1917	234
1	1904	235
1	1877	236
1	1858	237
1	1829	238
1	1822	239
1	1817	240
1	1818	241
1	1823	242
1	1843	243
1	1868	244
1	1895	245
1	1923	246
1	1949	247
1	1962	248
1	1986	249
1	2003	250
1	2008	251
1	2000	252
1	1985	253
1	1960	254
1	1920	255
1	1880	256
1	1849	257
1	1826	258
1	1802	259
1	1785	260
1	1778	261
1	1790	262
1	1824	263
1	1860	264
1	1895	265
1	1927	266
1	1953	267
1	1962	268
1	1957	269
1	1936	270
1	1908	271
1	1875	272
1	1855	273
1	1835	274
1	1809	275
1	1791	276
1	1781	277
1	1778	278
1	1791	279
1	1820	280
1	1857	281
1	1892	282
1	1937	283
1	1974	284
1	1996	285
1	1998	286
1	1986	287
1	1975	288
1	1967	289
1	1952	290
1	1936	291
1	1911	292
1	1878	293
1	1843	294
1	1797	295
1	1764	296
1	1741	297
1	1738	298
1	1755	299
1	1777	300
1	1796	301
1	1828	302
1	1855	303
1	1872	304
1	1888	305
1	1898	306
1	1914	307
1	1926	308
1	1942	309
1	1943	310
1	1931	311
1	1908	312
1	1890	313
1	1864	314
1	1843	315
1	1818	316
1	1798	317
1	1786	318
1	1780	319
1	1791	320
1	1813	321
1	1832	322
1	1849	323
1	1868	324
1	1892	325
1	1919	326
1	1947	327
1	1952	328
1	1958	329
1	1953	330
1	1929	331
1	1919	332
1	1893	333
1	1869	334
1	1848	335
1	1834	336
1	1823	337
1	1821	338
1	1824	339
1	1821	340
1	1823	341
1	1828	342
1	1837	343
1	1847	344
1	1869	345
1	1899	346
1	1930	347
1	1945	348
1	1949	349
1	1944	350
1	1922	351
1	1895	352
1	1873	353
1	1845	354
1	1803	355
1	1764	356
1	1729	357
1	1710	358
1	1698	359
1	1708	360
1	1724	361
1	1746	362
1	1778	363
1	1813	364
1	1834	365
1	1844	366
1	1847	367
1	1852	368
1	1854	369
1	1859	370
1	1868	371
1	1874	372
1	1880	373
1	1873	374
1	1862	375
1	1850	376
1	1840	377
1	1840	378
1	1837	379
1	1813	380
1	1778	381
1	1751	382
1	1745	383
1	1749	384
1	1754	385
1	1760	386
1	1766	387
1	1786	388
1	1802	389
1	1836	390
1	1866	391
1	1884	392
1	1886	393
1	1870	394
1	1854	395
1	1835	396
1	1817	397
1	1792	398
1	1774	399
1	1755	400
1	1751	401
1	1756	402
1	1779	403
1	1800	404
1	1823	405
1	1844	406
1	1861	407
1	1874	408
1	1873	409
1	1857	410
1	1829	411
1	1811	412
1	1791	413
1	1783	414
1	1779	415
1	1785	416
1	1791	417
1	1814	418
1	1823	419
1	1842	420
1	1858	421
1	1871	422
1	1882	423
1	1885	424
1	1889	425
1	1891	426
1	1897	427
1	1904	428
1	1917	429
1	1922	430
1	1922	431
1	1918	432
1	1909	433
1	1903	434
1	1895	435
1	1886	436
1	1869	437
1	1857	438
1	1865	439
1	1895	440
1	1932	441
1	1963	442
1	1994	443
1	2014	444
1	2027	445
1	2047	446
1	2061	447
1	2079	448
1	2079	449
1	2071	450
1	2052	451
1	2028	452
1	2003	453
1	1975	454
1	1949	455
1	1914	456
1	1890	457
1	1872	458
1	1870	459
1	1883	460
1	1895	461
1	1910	462
1	1936	463
1	1968	464
1	2003	465
1	2035	466
1	2058	467
1	2073	468
1	2070	469
1	2061	470
1	2048	471
1	2027	472
1	1993	473
1	1958	474
1	1925	475
1	1908	476
1	1899	477
1	1908	478
1	1921	479
1	1933	480
1	1952	481
1	1979	482
1	2012	483
1	2055	484
1	2093	485
1	2136	486
1	2188	487
1	2230	488
1	2260	489
1	2263	490
1	2255	491
1	2233	492
1	2205	493
1	2166	494
1	2131	495
1	2096	496
1	2060	497
1	2034	498
1	2024	499
1	2034	500
1	2054	501
1	2079	502
1	2111	503
1	2158	504
1	2213	505
1	2275	506
1	2333	507
1	2394	508
1	2433	509
1	2461	510
1	2473	511
1	2482	512
1	2474	513
1	2457	514
1	2423	515
1	2384	516
1	2352	517
1	2320	518
1	2305	519
1	2310	520
1	2326	521
1	2350	522
1	2394	523
1	2445	524
1	2496	525
1	2536	526
1	2581	527
1	2604	528
1	2624	529
1	2632	530
1	2629	531
1	2617	532
1	2593	533
1	2563	534
1	2523	535
1	2485	536
1	2440	537
1	2409	538
1	2406	539
1	2426	540
1	2461	541
1	2515	542
1	2576	543
1	2647	544
1	2722	545
1	2794	546
1	2869	547
1	2936	548
1	2990	549
1	3039	550
1	3080	551
1	3113	552
1	3130	553
1	3130	554
1	3130	555
1	3130	556
1	3130	557
1	3130	558
1	3130	559
1	3130	560
1	3130	561
1	3130	562
1	3130	563
1	3130	564
1	3130	565
1	3130	566
1	3130	567
1	3130	568
1	3130	569
1	3130	570
1	3130	571
1	3130	572
1	3130	573
1	3130	574
1	3130	575
1	3130	576
1	3120	577
1	3074	578
1	3041	579
1	3020	580
1	3004	581
1	2985	582
1	2975	583
1	2962	584
1	2953	585
1	2933	586
1	2908	587
1	2891	588
1	2867	589
1	2849	590
1	2844	591
1	2842	592
1	2835	593
1	2823	594
1	2812	595
1	2799	596
1	2782	597
1	2777	598
1	2785	599
1	2808	600
1	2836	601
1	2862	602
1	2892	603
1	2918	604
1	2937	605
1	2946	606
1	2947	607
1	2941	608
1	2928	609
1	2904	610
1	2883	611
1	2861	612
1	2830	613
1	2792	614
1	2754	615
1	2716	616
1	2681	617
1	2660	618
1	2661	619
1	2674	620
1	2695	621
1	2716	622
1	2732	623
1	2752	624
1	2779	625
1	2808	626
1	2827	627
1	2839	628
1	2839	629
1	2833	630
1	2825	631
1	2821	632
1	2811	633
1	2786	634
1	2763	635
1	2743	636
1	2724	637
1	2702	638
1	2685	639
1	2671	640
1	2673	641
1	2679	642
1	2688	643
1	2705	644
1	2735	645
1	2781	646
1	2829	647
1	2877	648
1	2920	649
1	2944	650
1	2959	651
1	2949	652
1	2922	653
1	2887	654
1	2850	655
1	2811	656
1	2773	657
1	2744	658
1	2709	659
1	2590	680
1	2591	681
1	2602	682
1	2615	683
1	2634	684
1	2656	685
1	2685	686
1	2707	687
1	2729	688
1	2741	689
1	2748	690
1	2747	691
1	2745	692
1	2727	693
1	2706	694
1	2685	695
1	2664	696
1	2646	697
1	2635	698
1	2632	699
1	2634	700
1	2639	701
1	2633	702
1	2640	703
1	2654	704
1	2685	705
1	2724	706
1	2760	707
1	2795	708
1	2818	709
1	2836	710
1	2841	711
1	2827	712
1	2810	713
1	2793	714
1	2756	715
1	2706	716
1	2653	717
1	2606	718
1	2577	719
1	2680	680
1	2652	681
1	2629	682
1	2622	683
1	2629	684
1	2651	685
1	2688	686
1	2735	687
1	2771	688
1	2801	689
1	2817	690
1	2818	691
1	2818	692
1	2813	693
1	2793	694
1	2757	695
1	2709	696
1	2660	697
1	2624	698
1	2602	699
1	2568	720
1	2580	721
1	2602	722
1	2631	723
1	2654	724
1	2687	725
1	2725	726
1	2763	727
1	2785	728
1	2793	729
1	2773	730
1	2747	731
1	2722	732
1	2696	733
1	2673	734
1	2653	735
1	2635	736
1	2612	737
1	2595	738
1	2589	739
1	2593	740
1	2607	741
1	2634	742
1	2660	743
1	2700	744
1	2742	745
1	2770	746
1	2787	747
1	2791	748
1	2775	749
1	2745	750
1	2706	751
1	2664	752
1	2625	753
1	2593	754
1	2571	755
1	2554	756
1	2535	757
1	2521	758
1	2509	759
1	2495	760
1	2474	761
1	2459	762
1	2468	763
1	2494	764
1	2535	765
1	2589	766
1	2644	767
1	2681	768
1	2706	769
1	2726	770
1	2740	771
1	2751	772
1	2753	773
1	2737	774
1	2707	775
1	2665	776
1	2623	777
1	2590	778
1	2558	779
1	2458	800
1	2436	801
1	2421	802
1	2412	803
1	2418	804
1	2435	805
1	2455	806
1	2474	807
1	2495	808
1	2499	809
1	2502	810
1	2496	811
1	2496	812
1	2495	813
1	2488	814
1	2480	815
1	2462	816
1	2441	817
1	2417	818
1	2407	819
1	2519	780
1	2496	781
1	2488	782
1	2492	783
1	2504	784
1	2522	785
1	2533	786
1	2545	787
1	2558	788
1	2574	789
1	2585	790
1	2602	791
1	2623	792
1	2640	793
1	2639	794
1	2624	795
1	2598	796
1	2562	797
1	2523	798
1	2492	799
1	2405	820
1	2410	821
1	2424	822
1	2466	823
1	2505	824
1	2545	825
1	2594	826
1	2637	827
1	2672	828
1	2696	829
1	2706	830
1	2699	831
1	2685	832
1	2655	833
1	2611	834
1	2555	835
1	2498	836
1	2446	837
1	2407	838
1	2382	839
1	2376	840
1	2377	841
1	2404	842
1	2433	843
1	2474	844
1	2516	845
1	2563	846
1	2595	847
1	2611	848
1	2620	849
1	2612	850
1	2595	851
1	2581	852
1	2574	853
1	2551	854
1	2524	855
1	2496	856
1	2446	857
1	2398	858
1	2368	859
1	2348	860
1	2349	861
1	2367	862
1	2393	863
1	2431	864
1	2471	865
1	2509	866
1	2537	867
1	2570	868
1	2577	869
1	2566	870
1	2525	871
1	2483	872
1	2425	873
1	2371	874
1	2320	875
1	2276	876
1	2246	877
1	2218	878
1	2204	879
1	2191	880
1	2187	881
1	2202	882
1	2240	883
1	2275	884
1	2307	885
1	2338	886
1	2363	887
1	2367	888
1	2365	889
1	2362	890
1	2349	891
1	2323	892
1	2283	893
1	2255	894
1	2236	895
1	2221	896
1	2208	897
1	2192	898
1	2171	899
1	2144	900
1	2119	901
1	2111	902
1	2115	903
1	2126	904
1	2131	905
1	2148	906
1	2170	907
1	2185	908
1	2205	909
1	2212	910
1	2208	911
1	2186	912
1	2159	913
1	2117	914
1	2070	915
1	2019	916
1	1974	917
1	1944	918
1	1936	919
1	1949	920
1	1974	921
1	2008	922
1	2052	923
1	2107	924
1	2161	925
1	2207	926
1	2244	927
1	2274	928
1	2274	929
1	2274	930
1	2251	931
1	2210	932
1	2168	933
1	2111	934
1	2055	935
1	1991	936
1	1935	937
1	1895	938
1	1869	939
1	1874	940
1	1897	941
1	1932	942
1	1980	943
1	2027	944
1	2079	945
1	2124	946
1	2186	947
1	2250	948
1	2309	949
1	2349	950
1	2367	951
1	2359	952
1	2317	953
1	2262	954
1	2188	955
1	2120	956
1	2063	957
1	2019	958
1	1985	959
1	1960	960
1	1936	961
1	1908	962
1	1882	963
1	1874	964
1	1890	965
1	1914	966
1	1947	967
1	1979	968
1	2019	969
1	2052	970
1	2076	971
1	2088	972
1	2079	973
1	2044	974
1	1996	975
1	1937	976
1	1886	977
1	1845	978
1	1821	979
1	1808	980
1	1796	981
1	1793	982
1	1791	983
1	1808	984
1	1837	985
1	1873	986
1	1908	987
1	1940	988
1	1956	989
1	1962	990
1	1958	991
1	1938	992
1	1900	993
1	1859	994
1	1818	995
1	1781	996
1	1761	997
1	1742	998
1	1738	999
1	1733	1000
1	1737	1001
1	1746	1002
1	1779	1003
1	1823	1004
1	1863	1005
1	1898	1006
1	1924	1007
1	1937	1008
1	1939	1009
1	1932	1010
1	1913	1011
1	1890	1012
1	1855	1013
1	1818	1014
1	1781	1015
1	1747	1016
1	1715	1017
1	1694	1018
1	1682	1019
1	1677	1020
1	1682	1021
1	1687	1022
1	1697	1023
1	1708	1024
1	1714	1025
1	1735	1026
1	1762	1027
1	1796	1028
1	1845	1029
1	1883	1030
1	1917	1031
1	1940	1032
1	1945	1033
1	1922	1034
1	1883	1035
1	1824	1036
1	1765	1037
1	1712	1038
1	1676	1039
1	1662	1040
1	1686	1041
1	1716	1042
1	1750	1043
1	1795	1044
1	1849	1045
1	1891	1046
1	1919	1047
1	1948	1048
1	1966	1049
1	1981	1050
1	1987	1051
1	1991	1052
1	2000	1053
1	2000	1054
1	1994	1055
1	1977	1056
1	1957	1057
1	1922	1058
1	1897	1059
1	1654	1100
1	1675	1101
1	1687	1102
1	1684	1103
1	1685	1104
1	1686	1105
1	1690	1106
1	1695	1107
1	1699	1108
1	1691	1109
1	1681	1110
1	1656	1111
1	1628	1112
1	1602	1113
1	1577	1114
1	1556	1115
1	1542	1116
1	1523	1117
1	1498	1118
1	1476	1119
1	1881	1060
1	1872	1061
1	1869	1062
1	1877	1063
1	1881	1064
1	1899	1065
1	1937	1066
1	1980	1067
1	2021	1068
1	2047	1069
1	2048	1070
1	2032	1071
1	2000	1072
1	1948	1073
1	1895	1074
1	1845	1075
1	1794	1076
1	1751	1077
1	1723	1078
1	1706	1079
1	1699	1080
1	1699	1081
1	1705	1082
1	1712	1083
1	1720	1084
1	1732	1085
1	1748	1086
1	1772	1087
1	1792	1088
1	1817	1089
1	1827	1090
1	1826	1091
1	1813	1092
1	1785	1093
1	1746	1094
1	1712	1095
1	1672	1096
1	1643	1097
1	1625	1098
1	1633	1099
1	1458	1120
1	1445	1121
1	1442	1122
1	1454	1123
1	1467	1124
1	1494	1125
1	1533	1126
1	1582	1127
1	1616	1128
1	1639	1129
1	1662	1130
1	1676	1131
1	1665	1132
1	1647	1133
1	1625	1134
1	1602	1135
1	1574	1136
1	1533	1137
1	1482	1138
1	1435	1139
1	1395	1140
1	1369	1141
1	1370	1142
1	1372	1143
1	1384	1144
1	1419	1145
1	1456	1146
1	1499	1147
1	1529	1148
1	1551	1149
1	1563	1150
1	1580	1151
1	1589	1152
1	1600	1153
1	1593	1154
1	1581	1155
1	1569	1156
1	1566	1157
1	1569	1158
1	1579	1159
1	1596	1160
1	1625	1161
1	1658	1162
1	1688	1163
1	1743	1164
1	1815	1165
1	1890	1166
1	1961	1167
1	2026	1168
1	2070	1169
1	2101	1170
1	2111	1171
1	2105	1172
1	2092	1173
1	2079	1174
1	2067	1175
1	2045	1176
1	2009	1177
1	1961	1178
1	1917	1179
1	1883	1180
1	1864	1181
1	1847	1182
1	1844	1183
1	1834	1184
1	1815	1185
1	1783	1186
1	1751	1187
1	1715	1188
1	1683	1189
1	1647	1190
1	1607	1191
1	1563	1192
1	1510	1193
1	1472	1194
1	1438	1195
1	1409	1196
1	1380	1197
1	1363	1198
1	1351	1199
1	1363	1200
1	1384	1201
1	1421	1202
1	1445	1203
1	1461	1204
1	1476	1205
1	1501	1206
1	1513	1207
1	1515	1208
1	1503	1209
1	1476	1210
1	1451	1211
1	1427	1212
1	1404	1213
1	1372	1214
1	1348	1215
1	1341	1216
1	1333	1217
1	1327	1218
1	1323	1219
1	1279	1240
1	1278	1241
1	1289	1242
1	1309	1243
1	1341	1244
1	1372	1245
1	1382	1246
1	1392	1247
1	1377	1248
1	1370	1249
1	1358	1250
1	1350	1251
1	1348	1252
1	1346	1253
1	1338	1254
1	1325	1255
1	1300	1256
1	1267	1257
1	1235	1258
1	1215	1259
1	1210	1260
1	1214	1261
1	1224	1262
1	1249	1263
1	1286	1264
1	1332	1265
1	1381	1266
1	1434	1267
1	1469	1268
1	1494	1269
1	1503	1270
1	1485	1271
1	1452	1272
1	1418	1273
1	1359	1274
1	1301	1275
1	1244	1276
1	1214	1277
1	1191	1278
1	1188	1279
1	1319	1220
1	1315	1221
1	1317	1222
1	1297	1223
1	1282	1224
1	1274	1225
1	1280	1226
1	1309	1227
1	1346	1228
1	1379	1229
1	1401	1230
1	1411	1231
1	1415	1232
1	1416	1233
1	1404	1234
1	1381	1235
1	1356	1236
1	1328	1237
1	1305	1238
1	1289	1239
1	1191	1280
1	1194	1281
1	1202	1282
1	1202	1283
1	1215	1284
1	1237	1285
1	1267	1286
1	1295	1287
1	1319	1288
1	1335	1289
1	1348	1290
1	1359	1291
1	1351	1292
1	1331	1293
1	1291	1294
1	1241	1295
1	1188	1296
1	1152	1297
1	1138	1298
1	1162	1299
1	1199	1300
1	1242	1301
1	1289	1302
1	1331	1303
1	1355	1304
1	1377	1305
1	1404	1306
1	1419	1307
1	1420	1308
1	1404	1309
1	1374	1310
1	1345	1311
1	1314	1312
1	1282	1313
1	1263	1314
1	1242	1315
1	1226	1316
1	1210	1317
1	1197	1318
1	1188	1319
1	1188	1320
1	1200	1321
1	1213	1322
1	1230	1323
1	1256	1324
1	1279	1325
1	1305	1326
1	1320	1327
1	1321	1328
1	1317	1329
1	1299	1330
1	1278	1331
1	1260	1332
1	1244	1333
1	1231	1334
1	1220	1335
1	1204	1336
1	1196	1337
1	1183	1338
1	1173	1339
1	1165	1340
1	1164	1341
1	1170	1342
1	1184	1343
1	1215	1344
1	1261	1345
1	1307	1346
1	1346	1347
1	1379	1348
1	1397	1349
1	1395	1350
1	1372	1351
1	1350	1352
1	1327	1353
1	1305	1354
1	1283	1355
1	1254	1356
1	1224	1357
1	1197	1358
1	1187	1359
1	1180	1360
1	1184	1361
1	1184	1362
1	1191	1363
1	1211	1364
1	1232	1365
1	1251	1366
1	1264	1367
1	1269	1368
1	1273	1369
1	1271	1370
1	1263	1371
1	1248	1372
1	1229	1373
1	1215	1374
1	1202	1375
1	1184	1376
1	1163	1377
1	1147	1378
1	1127	1379
1	1110	1380
1	1091	1381
1	1084	1382
1	1085	1383
1	1110	1384
1	1143	1385
1	1186	1386
1	1238	1387
1	1292	1388
1	1343	1389
1	1382	1390
1	1413	1391
1	1429	1392
1	1434	1393
1	1413	1394
1	1371	1395
1	1319	1396
1	1278	1397
1	1245	1398
1	1229	1399
1	1220	1400
1	1220	1401
1	1217	1402
1	1214	1403
1	1215	1404
1	1221	1405
1	1233	1406
1	1248	1407
1	1269	1408
1	1279	1409
1	1281	1410
1	1277	1411
1	1263	1412
1	1241	1413
1	1219	1414
1	1200	1415
1	1179	1416
1	1163	1417
1	1150	1418
1	1139	1419
1	1131	1420
1	1125	1421
1	1123	1422
1	1129	1423
1	1137	1424
1	1149	1425
1	1167	1426
1	1197	1427
1	1220	1428
1	1229	1429
1	1235	1430
1	1229	1431
1	1215	1432
1	1200	1433
1	1180	1434
1	1162	1435
1	1149	1436
1	1136	1437
1	1131	1438
1	1137	1439
1	1161	1440
1	1175	1441
1	1188	1442
1	1202	1443
1	1232	1444
1	1279	1445
1	1341	1446
1	1399	1447
1	1434	1448
1	1449	1449
1	1443	1450
1	1419	1451
1	1373	1452
1	1328	1453
1	1272	1454
1	1215	1455
1	1167	1456
1	1132	1457
1	1102	1458
1	1085	1459
1	1089	1460
1	1104	1461
1	1116	1462
1	1124	1463
1	1136	1464
1	1148	1465
1	1167	1466
1	1188	1467
1	1209	1468
1	1210	1469
1	1189	1470
1	1162	1471
1	1132	1472
1	1107	1473
1	1085	1474
1	1071	1475
1	1053	1476
1	1035	1477
1	1029	1478
1	1043	1479
1	1076	1480
1	1117	1481
1	1152	1482
1	1186	1483
1	1229	1484
1	1287	1485
1	1345	1486
1	1393	1487
1	1413	1488
1	1406	1489
1	1377	1490
1	1346	1491
1	1308	1492
1	1262	1493
1	1222	1494
1	1188	1495
1	1160	1496
1	1149	1497
1	1158	1498
1	1167	1499
1	1179	1500
1	1184	1501
1	1186	1502
1	1188	1503
1	1208	1504
1	1238	1505
1	1269	1506
1	1296	1507
1	1310	1508
1	1319	1509
1	1317	1510
1	1295	1511
1	1269	1512
1	1251	1513
1	1229	1514
1	1209	1515
1	1175	1516
1	1134	1517
1	1088	1518
1	1056	1519
1	1127	1540
1	1124	1541
1	1121	1542
1	1122	1543
1	1127	1544
1	1138	1545
1	1155	1546
1	1188	1547
1	1231	1548
1	1269	1549
1	1293	1550
1	1302	1551
1	1312	1552
1	1310	1553
1	1304	1554
1	1297	1555
1	1290	1556
1	1277	1557
1	1259	1558
1	1238	1559
1	1046	1520
1	1071	1521
1	1113	1522
1	1155	1523
1	1205	1524
1	1251	1525
1	1301	1526
1	1359	1527
1	1408	1528
1	1427	1529
1	1429	1530
1	1413	1531
1	1382	1532
1	1320	1533
1	1276	1534
1	1228	1535
1	1190	1536
1	1164	1537
1	1145	1538
1	1135	1539
1	1215	1560
1	1202	1561
1	1193	1562
1	1188	1563
1	1201	1564
1	1215	1565
1	1232	1566
1	1260	1567
1	1279	1568
1	1294	1569
1	1315	1570
1	1332	1571
1	1338	1572
1	1340	1573
1	1323	1574
1	1305	1575
1	1283	1576
1	1258	1577
1	1233	1578
1	1212	1579
1	1202	1580
1	1201	1581
1	1206	1582
1	1205	1583
1	1210	1584
1	1215	1585
1	1217	1586
1	1226	1587
1	1243	1588
1	1263	1589
1	1269	1590
1	1278	1591
1	1280	1592
1	1281	1593
1	1279	1594
1	1270	1595
1	1258	1596
1	1245	1597
1	1232	1598
1	1223	1599
1	1215	1600
1	1204	1601
1	1193	1602
1	1188	1603
1	1194	1604
1	1216	1605
1	1245	1606
1	1279	1607
1	1316	1608
1	1348	1609
1	1371	1610
1	1376	1611
1	1381	1612
1	1371	1613
1	1356	1614
1	1338	1615
1	1322	1616
1	1307	1617
1	1286	1618
1	1263	1619
1	1268	1640
1	1270	1641
1	1278	1642
1	1283	1643
1	1296	1644
1	1322	1645
1	1355	1646
1	1395	1647
1	1434	1648
1	1454	1649
1	1476	1650
1	1490	1651
1	1485	1652
1	1450	1653
1	1399	1654
1	1340	1655
1	1281	1656
1	1224	1657
1	1178	1658
1	1157	1659
1	1245	1620
1	1241	1621
1	1241	1622
1	1237	1623
1	1237	1624
1	1239	1625
1	1248	1626
1	1258	1627
1	1265	1628
1	1279	1629
1	1292	1630
1	1299	1631
1	1297	1632
1	1293	1633
1	1289	1634
1	1289	1635
1	1281	1636
1	1282	1637
1	1278	1638
1	1271	1639
1	1155	1660
1	1170	1661
1	1199	1662
1	1237	1663
1	1268	1664
1	1302	1665
1	1348	1666
1	1413	1667
1	1459	1668
1	1490	1669
1	1506	1670
1	1518	1671
1	1516	1672
1	1490	1673
1	1452	1674
1	1425	1675
1	1395	1676
1	1356	1677
1	1324	1678
1	1289	1679
1	1175	1700
1	1175	1701
1	1186	1702
1	1188	1703
1	1200	1704
1	1215	1705
1	1232	1706
1	1258	1707
1	1291	1708
1	1299	1709
1	1295	1710
1	1283	1711
1	1263	1712
1	1243	1713
1	1238	1714
1	1239	1715
1	1237	1716
1	1241	1717
1	1240	1718
1	1241	1719
1	1260	1680
1	1236	1681
1	1215	1682
1	1211	1683
1	1226	1684
1	1260	1685
1	1305	1686
1	1356	1687
1	1400	1688
1	1440	1689
1	1467	1690
1	1476	1691
1	1463	1692
1	1449	1693
1	1422	1694
1	1367	1695
1	1312	1696
1	1258	1697
1	1212	1698
1	1186	1699
1	1251	1720
1	1260	1721
1	1269	1722
1	1285	1723
1	1293	1724
1	1296	1725
1	1297	1726
1	1304	1727
1	1316	1728
1	1328	1729
1	1344	1730
1	1347	1731
1	1343	1732
1	1328	1733
1	1306	1734
1	1280	1735
1	1254	1736
1	1228	1737
1	1207	1738
1	1191	1739
1	1176	1740
1	1163	1741
1	1161	1742
1	1162	1743
1	1166	1744
1	1175	1745
1	1199	1746
1	1241	1747
1	1293	1748
1	1337	1749
1	1364	1750
1	1384	1751
1	1384	1752
1	1382	1753
1	1363	1754
1	1337	1755
1	1299	1756
1	1269	1757
1	1241	1758
1	1211	1759
1	1170	1760
1	1141	1761
1	1131	1762
1	1127	1763
1	1128	1764
1	1136	1765
1	1157	1766
1	1188	1767
1	1230	1768
1	1271	1769
1	1304	1770
1	1328	1771
1	1332	1772
1	1335	1773
1	1337	1774
1	1341	1775
1	1346	1776
1	1355	1777
1	1368	1778
1	1384	1779
1	1760	1800
1	1686	1801
1	1620	1802
1	1559	1803
1	1508	1804
1	1464	1805
1	1435	1806
1	1417	1807
1	1398	1808
1	1379	1809
1	1379	1810
1	1390	1811
1	1398	1812
1	1410	1813
1	1404	1814
1	1398	1815
1	1376	1816
1	1354	1817
1	1319	1818
1	1267	1819
1	1413	1780
1	1436	1781
1	1465	1782
1	1514	1783
1	1583	1784
1	1659	1785
1	1721	1786
1	1801	1787
1	1872	1788
1	1933	1789
1	1985	1790
1	2026	1791
1	2051	1792
1	2052	1793
1	2047	1794
1	2029	1795
1	2001	1796
1	1962	1797
1	1917	1798
1	1847	1799
1	1215	1820
1	1176	1821
1	1158	1822
1	1150	1823
1	1162	1824
1	1188	1825
1	1227	1826
1	1269	1827
1	1304	1828
1	1327	1829
1	1338	1830
1	1353	1831
1	1373	1832
1	1398	1833
1	1402	1834
1	1400	1835
1	1384	1836
1	1358	1837
1	1327	1838
1	1297	1839
1	1278	1840
1	1266	1841
1	1265	1842
1	1264	1843
1	1267	1844
1	1274	1845
1	1292	1846
1	1319	1847
1	1341	1848
1	1370	1849
1	1397	1850
1	1413	1851
1	1412	1852
1	1382	1853
1	1348	1854
1	1310	1855
1	1268	1856
1	1241	1857
1	1215	1858
1	1201	1859
1	1199	1860
1	1214	1861
1	1244	1862
1	1279	1863
1	1302	1864
1	1319	1865
1	1330	1866
1	1337	1867
1	1343	1868
1	1358	1869
1	1371	1870
1	1373	1871
1	1358	1872
1	1345	1873
1	1328	1874
1	1311	1875
1	1302	1876
1	1300	1877
1	1296	1878
1	1294	1879
1	1294	1880
1	1305	1881
1	1319	1882
1	1320	1883
1	1332	1884
1	1351	1885
1	1383	1886
1	1421	1887
1	1453	1888
1	1477	1889
1	1487	1890
1	1482	1891
1	1471	1892
1	1446	1893
1	1419	1894
1	1384	1895
1	1346	1896
1	1312	1897
1	1279	1898
1	1267	1899
1	1269	1900
1	1278	1901
1	1296	1902
1	1319	1903
1	1341	1904
1	1362	1905
1	1391	1906
1	1424	1907
1	1450	1908
1	1463	1909
1	1466	1910
1	1454	1911
1	1435	1912
1	1393	1913
1	1345	1914
1	1308	1915
1	1276	1916
1	1253	1917
1	1243	1918
1	1233	1919
1	1233	1920
1	1238	1921
1	1251	1922
1	1274	1923
1	1296	1924
1	1319	1925
1	1344	1926
1	1366	1927
1	1383	1928
1	1403	1929
1	1420	1930
1	1433	1931
1	1436	1932
1	1437	1933
1	1431	1934
1	1418	1935
1	1396	1936
1	1372	1937
1	1346	1938
1	1330	1939
1	1324	1940
1	1330	1941
1	1335	1942
1	1337	1943
1	1343	1944
1	1346	1945
1	1347	1946
1	1357	1947
1	1372	1948
1	1377	1949
1	1384	1950
1	1398	1951
1	1400	1952
1	1400	1953
1	1398	1954
1	1400	1955
1	1401	1956
1	1398	1957
1	1373	1958
1	1368	1959
1	1374	1960
1	1380	1961
1	1394	1962
1	1402	1963
1	1406	1964
1	1417	1965
1	1446	1966
1	1476	1967
1	1505	1968
1	1530	1969
1	1543	1970
1	1543	1971
1	1535	1972
1	1518	1973
1	1499	1974
1	1467	1975
1	1438	1976
1	1411	1977
1	1395	1978
1	1374	1979
1	1372	1980
1	1371	1981
1	1371	1982
1	1370	1983
1	1372	1984
1	1374	1985
1	1372	1986
1	1372	1987
1	1377	1988
1	1384	1989
1	1392	1990
1	1395	1991
1	1396	1992
1	1398	1993
1	1398	1994
1	1409	1995
1	1424	1996
1	1439	1997
1	1450	1998
1	1450	1999
1	1446	2000
1	1433	2001
1	1422	2002
1	1398	2003
1	1384	2004
1	1384	2005
1	1397	2006
1	1410	2007
1	1428	2008
1	1424	2009
1	1398	2010
1	1366	2011
1	1346	2012
1	1343	2013
1	1345	2014
1	1346	2015
1	1345	2016
1	1346	2017
1	1345	2018
1	1356	2019
1	1372	2020
1	1377	2021
1	1392	2022
1	1398	2023
1	1397	2024
1	1399	2025
1	1409	2026
1	1426	2027
1	1448	2028
1	1459	2029
1	1474	2030
1	1479	2031
1	1480	2032
1	1476	2033
1	1463	2034
1	1441	2035
1	1420	2036
1	1384	2037
1	1355	2038
1	1328	2039
1	1299	2040
1	1285	2041
1	1292	2042
1	1297	2043
1	1319	2044
1	1346	2045
1	1377	2046
1	1413	2047
1	1441	2048
1	1468	2049
1	1484	2050
1	1485	2051
1	1470	2052
1	1449	2053
1	1426	2054
1	1409	2055
1	1395	2056
1	1377	2057
1	1372	2058
1	1368	2059
1	1350	2060
1	1333	2061
1	1328	2062
1	1327	2063
1	1337	2064
1	1348	2065
1	1366	2066
1	1402	2067
1	1438	2068
1	1459	2069
1	1476	2070
1	1481	2071
1	1479	2072
1	1476	2073
1	1472	2074
1	1461	2075
1	1452	2076
1	1444	2077
1	1418	2078
1	1394	2079
1	1366	2080
1	1346	2081
1	1343	2082
1	1358	2083
1	1379	2084
1	1399	2085
1	1399	2086
1	1400	2087
1	1395	2088
1	1382	2089
1	1377	2090
1	1390	2091
1	1407	2092
1	1427	2093
1	1448	2094
1	1456	2095
1	1456	2096
1	1449	2097
1	1431	2098
1	1419	2099
1	1409	2100
1	1406	2101
1	1416	2102
1	1433	2103
1	1452	2104
1	1476	2105
1	1490	2106
1	1498	2107
1	1489	2108
1	1485	2109
1	1485	2110
1	1477	2111
1	1474	2112
1	1476	2113
1	1466	2114
1	1445	2115
1	1419	2116
1	1399	2117
1	1383	2118
1	1379	2119
1	1391	2120
1	1412	2121
1	1437	2122
1	1454	2123
1	1481	2124
1	1503	2125
1	1520	2126
1	1535	2127
1	1554	2128
1	1559	2129
1	1556	2130
1	1533	2131
1	1503	2132
1	1453	2133
1	1430	2134
1	1400	2135
1	1368	2136
1	1329	2137
1	1286	2138
1	1250	2139
1	1228	2140
1	1218	2141
1	1229	2142
1	1262	2143
1	1308	2144
1	1361	2145
1	1432	2146
1	1498	2147
1	1551	2148
1	1589	2149
1	1609	2150
1	1621	2151
1	1611	2152
1	1582	2153
1	1561	2154
1	1542	2155
1	1521	2156
1	1487	2157
1	1450	2158
1	1424	2159
1	1413	2160
1	1420	2161
1	1441	2162
1	1466	2163
1	1484	2164
1	1506	2165
1	1531	2166
1	1555	2167
1	1573	2168
1	1589	2169
1	1581	2170
1	1565	2171
1	1538	2172
1	1512	2173
1	1474	2174
1	1431	2175
1	1384	2176
1	1345	2177
1	1310	2178
1	1291	2179
1	1281	2180
1	1278	2181
1	1281	2182
1	1287	2183
1	1295	2184
1	1320	2185
1	1361	2186
1	1415	2187
1	1489	2188
1	1555	2189
1	1607	2190
1	1635	2191
1	1640	2192
1	1638	2193
1	1633	2194
1	1608	2195
1	1585	2196
1	1553	2197
1	1526	2198
1	1502	2199
1	1472	2200
1	1437	2201
1	1399	2202
1	1382	2203
1	1380	2204
1	1396	2205
1	1409	2206
1	1424	2207
1	1450	2208
1	1479	2209
1	1503	2210
1	1525	2211
1	1530	2212
1	1531	2213
1	1540	2214
1	1544	2215
1	1547	2216
1	1535	2217
1	1515	2218
1	1489	2219
1	1472	2220
1	1467	2221
1	1474	2222
1	1476	2223
1	1479	2224
1	1485	2225
1	1490	2226
1	1497	2227
1	1503	2228
1	1518	2229
1	1529	2230
1	1529	2231
1	1521	2232
1	1508	2233
1	1495	2234
1	1476	2235
1	1466	2236
1	1468	2237
1	1467	2238
1	1467	2239
1	1475	2240
1	1487	2241
1	1503	2242
1	1505	2243
1	1507	2244
1	1510	2245
1	1515	2246
1	1512	2247
1	1513	2248
1	1506	2249
1	1497	2250
1	1485	2251
1	1467	2252
1	1441	2253
1	1420	2254
1	1409	2255
1	1404	2256
1	1411	2257
1	1424	2258
1	1446	2259
1	1463	2260
1	1474	2261
1	1488	2262
1	1501	2263
1	1510	2264
1	1525	2265
1	1535	2266
1	1555	2267
1	1581	2268
1	1597	2269
1	1595	2270
1	1589	2271
1	1579	2272
1	1564	2273
1	1559	2274
1	1547	2275
1	1536	2276
1	1526	2277
1	1518	2278
1	1503	2279
1	1505	2300
1	1503	2301
1	1494	2302
1	1474	2303
1	1456	2304
1	1445	2305
1	1438	2306
1	1449	2307
1	1476	2308
1	1495	2309
1	1507	2310
1	1517	2311
1	1525	2312
1	1524	2313
1	1521	2314
1	1508	2315
1	1487	2316
1	1459	2317
1	1425	2318
1	1397	2319
1	1487	2280
1	1482	2281
1	1488	2282
1	1498	2283
1	1519	2284
1	1542	2285
1	1560	2286
1	1564	2287
1	1557	2288
1	1548	2289
1	1537	2290
1	1528	2291
1	1520	2292
1	1521	2293
1	1524	2294
1	1526	2295
1	1529	2296
1	1527	2297
1	1518	2298
1	1508	2299
1	1371	2320
1	1355	2321
1	1350	2322
1	1361	2323
1	1371	2324
1	1379	2325
1	1395	2326
1	1400	2327
1	1417	2328
1	1437	2329
1	1467	2330
1	1495	2331
1	1524	2332
1	1540	2333
1	1538	2334
1	1527	2335
1	1503	2336
1	1469	2337
1	1427	2338
1	1384	2339
1	1364	2340
1	1350	2341
1	1360	2342
1	1371	2343
1	1394	2344
1	1417	2345
1	1437	2346
1	1467	2347
1	1502	2348
1	1533	2349
1	1553	2350
1	1557	2351
1	1546	2352
1	1517	2353
1	1474	2354
1	1426	2355
1	1381	2356
1	1350	2357
1	1342	2358
1	1337	2359
1	1341	2360
1	1351	2361
1	1373	2362
1	1404	2363
1	1425	2364
1	1442	2365
1	1449	2366
1	1452	2367
1	1464	2368
1	1464	2369
1	1455	2370
1	1454	2371
1	1453	2372
1	1458	2373
1	1472	2374
1	1490	2375
1	1517	2376
1	1554	2377
1	1582	2378
1	1612	2379
1	1644	2380
1	1674	2381
1	1723	2382
1	1791	2383
1	1861	2384
1	1937	2385
1	2006	2386
1	2070	2387
1	2125	2388
1	2170	2389
1	2196	2390
1	2204	2391
1	2188	2392
1	2142	2393
1	2083	2394
1	2017	2395
1	1952	2396
1	1878	2397
1	1816	2398
1	1742	2399
1	1683	2400
1	1634	2401
1	1605	2402
1	1587	2403
1	1579	2404
1	1581	2405
1	1597	2406
1	1620	2407
1	1635	2408
1	1651	2409
1	1657	2410
1	1640	2411
1	1606	2412
1	1555	2413
1	1503	2414
1	1455	2415
1	1425	2416
1	1403	2417
1	1391	2418
1	1377	2419
1	1377	2420
1	1392	2421
1	1409	2422
1	1418	2423
1	1431	2424
1	1458	2425
1	1484	2426
1	1508	2427
1	1530	2428
1	1541	2429
1	1541	2430
1	1539	2431
1	1537	2432
1	1529	2433
1	1529	2434
1	1517	2435
1	1497	2436
1	1474	2437
1	1450	2438
1	1436	2439
1	1437	2440
1	1450	2441
1	1472	2442
1	1489	2443
1	1500	2444
1	1506	2445
1	1503	2446
1	1513	2447
1	1517	2448
1	1517	2449
1	1514	2450
1	1508	2451
1	1506	2452
1	1502	2453
1	1499	2454
1	1490	2455
1	1469	2456
1	1446	2457
1	1437	2458
1	1426	2459
1	1423	2460
1	1420	2461
1	1417	2462
1	1415	2463
1	1417	2464
1	1427	2465
1	1448	2466
1	1476	2467
1	1503	2468
1	1538	2469
1	1562	2470
1	1581	2471
1	1592	2472
1	1607	2473
1	1611	2474
1	1596	2475
1	1574	2476
1	1543	2477
1	1504	2478
1	1470	2479
1	1441	2480
1	1425	2481
1	1422	2482
1	1422	2483
1	1431	2484
1	1450	2485
1	1467	2486
1	1495	2487
1	1521	2488
1	1541	2489
1	1551	2490
1	1554	2491
1	1553	2492
1	1545	2493
1	1544	2494
1	1548	2495
1	1547	2496
1	1546	2497
1	1533	2498
1	1525	2499
1	1509	2500
1	1492	2501
1	1479	2502
1	1474	2503
1	1462	2504
1	1453	2505
1	1449	2506
1	1462	2507
1	1497	2508
1	1533	2509
1	1559	2510
1	1572	2511
1	1577	2512
1	1571	2513
1	1571	2514
1	1559	2515
1	1553	2516
1	1551	2517
1	1561	2518
1	1562	2519
1	1557	2520
1	1548	2521
1	1540	2522
1	1535	2523
1	1529	2524
1	1529	2525
1	1534	2526
1	1559	2527
1	1581	2528
1	1609	2529
1	1641	2530
1	1667	2531
1	1677	2532
1	1670	2533
1	1651	2534
1	1589	2535
1	1540	2536
1	1490	2537
1	1446	2538
1	1404	2539
1	1372	2540
1	1350	2541
1	1351	2542
1	1372	2543
1	1416	2544
1	1476	2545
1	1544	2546
1	1611	2547
1	1670	2548
1	1712	2549
1	1737	2550
1	1737	2551
1	1730	2552
1	1720	2553
1	1712	2554
1	1697	2555
1	1674	2556
1	1636	2557
1	1578	2558
1	1518	2559
1	1472	2560
1	1439	2561
1	1426	2562
1	1424	2563
1	1422	2564
1	1431	2565
1	1455	2566
1	1494	2567
1	1530	2568
1	1571	2569
1	1610	2570
1	1647	2571
1	1674	2572
1	1687	2573
1	1688	2574
1	1674	2575
1	1651	2576
1	1628	2577
1	1598	2578
1	1575	2579
1	1553	2580
1	1534	2581
1	1523	2582
1	1512	2583
1	1500	2584
1	1492	2585
1	1490	2586
1	1493	2587
1	1497	2588
1	1502	2589
1	1509	2590
1	1526	2591
1	1533	2592
1	1535	2593
1	1529	2594
1	1528	2595
1	1534	2596
1	1549	2597
1	1563	2598
1	1581	2599
1	1607	2600
1	1634	2601
1	1660	2602
1	1668	2603
1	1672	2604
1	1665	2605
1	1660	2606
1	1665	2607
1	1685	2608
1	1688	2609
1	1683	2610
1	1669	2611
1	1649	2612
1	1625	2613
1	1603	2614
1	1581	2615
1	1557	2616
1	1535	2617
1	1517	2618
1	1508	2619
1	1517	2620
1	1542	2621
1	1577	2622
1	1611	2623
1	1642	2624
1	1672	2625
1	1689	2626
1	1706	2627
1	1712	2628
1	1708	2629
1	1688	2630
1	1655	2631
1	1616	2632
1	1585	2633
1	1556	2634
1	1528	2635
1	1501	2636
1	1486	2637
1	1476	2638
1	1467	2639
1	1464	2640
1	1461	2641
1	1476	2642
1	1490	2643
1	1517	2644
1	1555	2645
1	1597	2646
1	1638	2647
1	1674	2648
1	1705	2649
1	1716	2650
1	1715	2651
1	1698	2652
1	1674	2653
1	1647	2654
1	1620	2655
1	1591	2656
1	1560	2657
1	1532	2658
1	1507	2659
1	1489	2660
1	1481	2661
1	1494	2662
1	1512	2663
1	1538	2664
1	1579	2665
1	1615	2666
1	1647	2667
1	1674	2668
1	1689	2669
1	1693	2670
1	1690	2671
1	1678	2672
1	1659	2673
1	1639	2674
1	1622	2675
1	1607	2676
1	1587	2677
1	1555	2678
1	1529	2679
1	1515	2680
1	1517	2681
1	1531	2682
1	1552	2683
1	1566	2684
1	1589	2685
1	1616	2686
1	1652	2687
1	1674	2688
1	1688	2689
1	1701	2690
1	1699	2691
1	1688	2692
1	1658	2693
1	1623	2694
1	1594	2695
1	1573	2696
1	1555	2697
1	1541	2698
1	1520	2699
1	1504	2700
1	1503	2701
1	1507	2702
1	1517	2703
1	1526	2704
1	1534	2705
1	1542	2706
1	1557	2707
1	1576	2708
1	1596	2709
1	1610	2710
1	1632	2711
1	1652	2712
1	1680	2713
1	1689	2714
1	1690	2715
1	1682	2716
1	1659	2717
1	1626	2718
1	1581	2719
1	1543	2720
1	1533	2721
1	1541	2722
1	1542	2723
1	1538	2724
1	1542	2725
1	1559	2726
1	1594	2727
1	1638	2728
1	1683	2729
1	1710	2730
1	1721	2731
1	1716	2732
1	1697	2733
1	1669	2734
1	1634	2735
1	1608	2736
1	1589	2737
1	1567	2738
1	1544	2739
1	1529	2740
1	1516	2741
1	1510	2742
1	1512	2743
1	1521	2744
1	1537	2745
1	1553	2746
1	1571	2747
1	1584	2748
1	1597	2749
1	1608	2750
1	1613	2751
1	1613	2752
1	1604	2753
1	1593	2754
1	1584	2755
1	1590	2756
1	1591	2757
1	1599	2758
1	1605	2759
1	1620	2760
1	1636	2761
1	1655	2762
1	1665	2763
1	1677	2764
1	1685	2765
1	1687	2766
1	1697	2767
1	1699	2768
1	1700	2769
1	1688	2770
1	1670	2771
1	1643	2772
1	1615	2773
1	1580	2774
1	1539	2775
1	1503	2776
1	1474	2777
1	1449	2778
1	1431	2779
1	1429	2780
1	1437	2781
1	1459	2782
1	1494	2783
1	1530	2784
1	1574	2785
1	1611	2786
1	1645	2787
1	1679	2788
1	1705	2789
1	1720	2790
1	1724	2791
1	1719	2792
1	1703	2793
1	1687	2794
1	1662	2795
1	1634	2796
1	1613	2797
1	1595	2798
1	1592	2799
1	1597	2800
1	1607	2801
1	1611	2802
1	1620	2803
1	1615	2804
1	1611	2805
1	1599	2806
1	1589	2807
1	1586	2808
1	1584	2809
1	1581	2810
1	1579	2811
1	1564	2812
1	1541	2813
1	1521	2814
1	1508	2815
1	1511	2816
1	1517	2817
1	1529	2818
1	1544	2819
1	1454	2840
1	1467	2841
1	1483	2842
1	1502	2843
1	1529	2844
1	1559	2845
1	1593	2846
1	1628	2847
1	1661	2848
1	1690	2849
1	1712	2850
1	1721	2851
1	1712	2852
1	1687	2853
1	1658	2854
1	1625	2855
1	1592	2856
1	1543	2857
1	1485	2858
1	1441	2859
1	1569	2820
1	1595	2821
1	1634	2822
1	1665	2823
1	1688	2824
1	1703	2825
1	1703	2826
1	1706	2827
1	1706	2828
1	1705	2829
1	1690	2830
1	1668	2831
1	1636	2832
1	1605	2833
1	1574	2834
1	1543	2835
1	1512	2836
1	1490	2837
1	1467	2838
1	1451	2839
1	1413	2860
1	1400	2861
1	1403	2862
1	1425	2863
1	1454	2864
1	1499	2865
1	1548	2866
1	1598	2867
1	1636	2868
1	1670	2869
1	1697	2870
1	1712	2871
1	1720	2872
1	1724	2873
1	1724	2874
1	1714	2875
1	1698	2876
1	1670	2877
1	1659	2878
1	1646	2879
1	1635	2880
1	1632	2881
1	1625	2882
1	1631	2883
1	1636	2884
1	1643	2885
1	1643	2886
1	1636	2887
1	1642	2888
1	1650	2889
1	1659	2890
1	1672	2891
1	1678	2892
1	1677	2893
1	1658	2894
1	1623	2895
1	1580	2896
1	1529	2897
1	1479	2898
1	1433	2899
1	1400	2900
1	1381	2901
1	1380	2902
1	1384	2903
1	1412	2904
1	1448	2905
1	1499	2906
1	1555	2907
1	1618	2908
1	1662	2909
1	1695	2910
1	1710	2911
1	1702	2912
1	1685	2913
1	1662	2914
1	1638	2915
1	1611	2916
1	1581	2917
1	1548	2918
1	1530	2919
1	1519	2920
1	1517	2921
1	1525	2922
1	1538	2923
1	1541	2924
1	1548	2925
1	1556	2926
1	1575	2927
1	1592	2928
1	1594	2929
1	1594	2930
1	1598	2931
1	1609	2932
1	1629	2933
1	1646	2934
1	1647	2935
1	1645	2936
1	1625	2937
1	1593	2938
1	1562	2939
1	1540	2940
1	1527	2941
1	1524	2942
1	1512	2943
1	1502	2944
1	1492	2945
1	1495	2946
1	1504	2947
1	1517	2948
1	1535	2949
1	1551	2950
1	1557	2951
1	1562	2952
1	1578	2953
1	1584	2954
1	1589	2955
1	1579	2956
1	1555	2957
1	1539	2958
1	1521	2959
1	1511	2960
1	1514	2961
1	1521	2962
1	1534	2963
1	1552	2964
1	1560	2965
1	1569	2966
1	1575	2967
1	1580	2968
1	1566	2969
1	1553	2970
1	1536	2971
1	1526	2972
1	1507	2973
1	1497	2974
1	1497	2975
1	1500	2976
1	1508	2977
1	1529	2978
1	1557	2979
1	1593	2980
1	1634	2981
1	1684	2982
1	1746	2983
1	1809	2984
1	1886	2985
1	1966	2986
1	2041	2987
1	2115	2988
1	2173	2989
1	2231	2990
1	2273	2991
1	2297	2992
1	2313	2993
1	2314	2994
1	2292	2995
1	2261	2996
1	2209	2997
1	2166	2998
1	2111	2999
1	2066	3000
1	2024	3001
1	1983	3002
1	1949	3003
1	1922	3004
1	1895	3005
1	1868	3006
1	1831	3007
1	1789	3008
1	1757	3009
1	1737	3010
1	1718	3011
1	1710	3012
1	1704	3013
1	1686	3014
1	1652	3015
1	1607	3016
1	1554	3017
1	1495	3018
1	1448	3019
1	1418	3020
1	1402	3021
1	1415	3022
1	1443	3023
1	1481	3024
1	1525	3025
1	1569	3026
1	1611	3027
1	1651	3028
1	1677	3029
1	1690	3030
1	1703	3031
1	1707	3032
1	1701	3033
1	1683	3034
1	1656	3035
1	1632	3036
1	1607	3037
1	1582	3038
1	1564	3039
1	1550	3040
1	1533	3041
1	1512	3042
1	1503	3043
1	1507	3044
1	1521	3045
1	1540	3046
1	1567	3047
1	1587	3048
1	1597	3049
1	1607	3050
1	1618	3051
1	1633	3052
1	1644	3053
1	1656	3054
1	1661	3055
1	1660	3056
1	1638	3057
1	1623	3058
1	1606	3059
1	1599	3060
1	1593	3061
1	1581	3062
1	1574	3063
1	1566	3064
1	1559	3065
1	1572	3066
1	1596	3067
1	1619	3068
1	1647	3069
1	1672	3070
1	1682	3071
1	1681	3072
1	1679	3073
1	1674	3074
1	1670	3075
1	1656	3076
1	1629	3077
1	1598	3078
1	1567	3079
1	1541	3080
1	1515	3081
1	1494	3082
1	1482	3083
1	1485	3084
1	1502	3085
1	1518	3086
1	1533	3087
1	1555	3088
1	1574	3089
1	1607	3090
1	1626	3091
1	1635	3092
1	1634	3093
1	1620	3094
1	1607	3095
1	1595	3096
1	1586	3097
1	1567	3098
1	1553	3099
1	1541	3100
1	1530	3101
1	1541	3102
1	1567	3103
1	1605	3104
1	1639	3105
1	1668	3106
1	1693	3107
1	1718	3108
1	1738	3109
1	1751	3110
1	1753	3111
1	1734	3112
1	1689	3113
1	1656	3114
1	1629	3115
1	1607	3116
1	1585	3117
1	1570	3118
1	1550	3119
1	1535	3120
1	1536	3121
1	1555	3122
1	1576	3123
1	1597	3124
1	1616	3125
1	1634	3126
1	1644	3127
1	1649	3128
1	1660	3129
1	1662	3130
1	1655	3131
1	1645	3132
1	1638	3133
1	1629	3134
1	1608	3135
1	1600	3136
1	1603	3137
1	1597	3138
1	1580	3139
1	1555	3140
1	1543	3141
1	1538	3142
1	1535	3143
1	1549	3144
1	1575	3145
1	1610	3146
1	1654	3147
1	1707	3148
1	1752	3149
1	1783	3150
1	1809	3151
1	1813	3152
1	1793	3153
1	1772	3154
1	1751	3155
1	1726	3156
1	1708	3157
1	1692	3158
1	1686	3159
1	1679	3160
1	1661	3161
1	1647	3162
1	1641	3163
1	1631	3164
1	1616	3165
1	1593	3166
1	1572	3167
1	1559	3168
1	1553	3169
1	1548	3170
1	1550	3171
1	1560	3172
1	1569	3173
1	1578	3174
1	1580	3175
1	1577	3176
1	1580	3177
1	1594	3178
1	1607	3179
1	1629	3180
1	1647	3181
1	1660	3182
1	1675	3183
1	1687	3184
1	1700	3185
1	1706	3186
1	1701	3187
1	1691	3188
1	1704	3189
1	1726	3190
1	1744	3191
1	1760	3192
1	1773	3193
1	1769	3194
1	1762	3195
1	1744	3196
1	1716	3197
1	1681	3198
1	1640	3199
1	1607	3200
1	1590	3201
1	1577	3202
1	1579	3203
1	1602	3204
1	1631	3205
1	1649	3206
1	1661	3207
1	1677	3208
1	1685	3209
1	1682	3210
1	1673	3211
1	1661	3212
1	1652	3213
1	1658	3214
1	1669	3215
1	1674	3216
1	1668	3217
1	1648	3218
1	1644	3219
1	1651	3220
1	1665	3221
1	1684	3222
1	1697	3223
1	1695	3224
1	1700	3225
1	1703	3226
1	1708	3227
1	1706	3228
1	1688	3229
1	1674	3230
1	1664	3231
1	1661	3232
1	1661	3233
1	1660	3234
1	1658	3235
1	1646	3236
1	1620	3237
1	1587	3238
1	1561	3239
1	1549	3240
1	1543	3241
1	1541	3242
1	1534	3243
1	1531	3244
1	1542	3245
1	1573	3246
1	1608	3247
1	1638	3248
1	1673	3249
1	1701	3250
1	1725	3251
1	1743	3252
1	1751	3253
1	1738	3254
1	1708	3255
1	1670	3256
1	1625	3257
1	1584	3258
1	1557	3259
1	1546	3260
1	1551	3261
1	1566	3262
1	1581	3263
1	1607	3264
1	1646	3265
1	1688	3266
1	1734	3267
1	1782	3268
1	1826	3269
1	1856	3270
1	1870	3271
1	1868	3272
1	1831	3273
1	1778	3274
1	1727	3275
1	1688	3276
1	1656	3277
1	1616	3278
1	1582	3279
1	1551	3280
1	1528	3281
1	1508	3282
1	1503	3283
1	1499	3284
1	1499	3285
1	1513	3286
1	1544	3287
1	1586	3288
1	1636	3289
1	1686	3290
1	1719	3291
1	1736	3292
1	1727	3293
1	1712	3294
1	1694	3295
1	1668	3296
1	1638	3297
1	1611	3298
1	1590	3299
1	1580	3300
1	1581	3301
1	1594	3302
1	1607	3303
1	1611	3304
1	1620	3305
1	1633	3306
1	1638	3307
1	1647	3308
1	1659	3309
1	1669	3310
1	1675	3311
1	1677	3312
1	1674	3313
1	1661	3314
1	1637	3315
1	1607	3316
1	1581	3317
1	1566	3318
1	1554	3319
1	1628	3340
1	1611	3341
1	1607	3342
1	1621	3343
1	1636	3344
1	1656	3345
1	1669	3346
1	1688	3347
1	1710	3348
1	1727	3349
1	1743	3350
1	1751	3351
1	1743	3352
1	1728	3353
1	1713	3354
1	1698	3355
1	1671	3356
1	1638	3357
1	1607	3358
1	1581	3359
1	1553	3320
1	1562	3321
1	1584	3322
1	1611	3323
1	1643	3324
1	1670	3325
1	1700	3326
1	1737	3327
1	1769	3328
1	1783	3329
1	1798	3330
1	1809	3331
1	1814	3332
1	1808	3333
1	1783	3334
1	1757	3335
1	1733	3336
1	1711	3337
1	1685	3338
1	1655	3339
1	1564	3360
1	1557	3361
1	1559	3362
1	1564	3363
1	1571	3364
1	1586	3365
1	1618	3366
1	1660	3367
1	1704	3368
1	1744	3369
1	1769	3370
1	1783	3371
1	1788	3372
1	1794	3373
1	1796	3374
1	1798	3375
1	1785	3376
1	1757	3377
1	1720	3378
1	1680	3379
1	1672	3400
1	1668	3401
1	1670	3402
1	1686	3403
1	1692	3404
1	1697	3405
1	1704	3406
1	1725	3407
1	1760	3408
1	1790	3409
1	1814	3410
1	1817	3411
1	1802	3412
1	1769	3413
1	1737	3414
1	1698	3415
1	1667	3416
1	1649	3417
1	1648	3418
1	1652	3419
1	1634	3380
1	1598	3381
1	1580	3382
1	1583	3383
1	1609	3384
1	1647	3385
1	1673	3386
1	1692	3387
1	1718	3388
1	1743	3389
1	1770	3390
1	1795	3391
1	1816	3392
1	1817	3393
1	1813	3394
1	1787	3395
1	1754	3396
1	1732	3397
1	1700	3398
1	1683	3399
1	1661	3420
1	1684	3421
1	1700	3422
1	1716	3423
1	1738	3424
1	1760	3425
1	1782	3426
1	1816	3427
1	1836	3428
1	1859	3429
1	1869	3430
1	1861	3431
1	1834	3432
1	1791	3433
1	1752	3434
1	1699	3435
1	1649	3436
1	1615	3437
1	1579	3438
1	1549	3439
1	1528	3440
1	1517	3441
1	1524	3442
1	1532	3443
1	1557	3444
1	1590	3445
1	1625	3446
1	1650	3447
1	1687	3448
1	1722	3449
1	1759	3450
1	1795	3451
1	1832	3452
1	1856	3453
1	1869	3454
1	1867	3455
1	1843	3456
1	1796	3457
1	1744	3458
1	1693	3459
1	1694	3480
1	1689	3481
1	1686	3482
1	1690	3483
1	1696	3484
1	1700	3485
1	1698	3486
1	1707	3487
1	1734	3488
1	1767	3489
1	1808	3490
1	1832	3491
1	1852	3492
1	1869	3493
1	1869	3494
1	1857	3495
1	1842	3496
1	1821	3497
1	1796	3498
1	1767	3499
1	1652	3480
1	1626	3481
1	1605	3482
1	1598	3483
1	1607	3484
1	1629	3485
1	1660	3486
1	1687	3487
1	1712	3488
1	1740	3489
1	1764	3490
1	1770	3491
1	1775	3492
1	1757	3493
1	1734	3494
1	1710	3495
1	1688	3496
1	1674	3497
1	1684	3498
1	1690	3499
1	1739	3500
1	1714	3501
1	1694	3502
1	1674	3503
1	1652	3504
1	1642	3505
1	1647	3506
1	1658	3507
1	1671	3508
1	1682	3509
1	1688	3510
1	1695	3511
1	1703	3512
1	1704	3513
1	1697	3514
1	1682	3515
1	1656	3516
1	1633	3517
1	1607	3518
1	1600	3519
1	1571	3540
1	1542	3541
1	1529	3542
1	1529	3543
1	1542	3544
1	1554	3545
1	1571	3546
1	1597	3547
1	1625	3548
1	1659	3549
1	1685	3550
1	1701	3551
1	1724	3552
1	1747	3553
1	1760	3554
1	1764	3555
1	1742	3556
1	1705	3557
1	1667	3558
1	1632	3559
1	1593	3520
1	1581	3521
1	1564	3522
1	1561	3523
1	1555	3524
1	1568	3525
1	1596	3526
1	1631	3527
1	1659	3528
1	1680	3529
1	1702	3530
1	1715	3531
1	1721	3532
1	1721	3533
1	1712	3534
1	1704	3535
1	1695	3536
1	1684	3537
1	1654	3538
1	1611	3539
1	1603	3560
1	1586	3561
1	1570	3562
1	1547	3563
1	1529	3564
1	1517	3565
1	1530	3566
1	1556	3567
1	1593	3568
1	1611	3569
1	1615	3570
1	1615	3571
1	1613	3572
1	1609	3573
1	1607	3574
1	1610	3575
1	1609	3576
1	1602	3577
1	1580	3578
1	1555	3579
1	1856	3600
1	1900	3601
1	1953	3602
1	2013	3603
1	2077	3604
1	2136	3605
1	2196	3606
1	2262	3607
1	2312	3608
1	2359	3609
1	2394	3610
1	2413	3611
1	2408	3612
1	2382	3613
1	2336	3614
1	2282	3615
1	2214	3616
1	2145	3617
1	2077	3618
1	2012	3619
1	1529	3580
1	1511	3581
1	1503	3582
1	1511	3583
1	1540	3584
1	1577	3585
1	1616	3586
1	1664	3587
1	1698	3588
1	1713	3589
1	1720	3590
1	1725	3591
1	1738	3592
1	1751	3593
1	1767	3594
1	1782	3595
1	1785	3596
1	1790	3597
1	1803	3598
1	1826	3599
1	1946	3620
1	1881	3621
1	1827	3622
1	1772	3623
1	1738	3624
1	1717	3625
1	1705	3626
1	1712	3627
1	1738	3628
1	1759	3629
1	1764	3630
1	1772	3631
1	1764	3632
1	1729	3633
1	1686	3634
1	1647	3635
1	1611	3636
1	1580	3637
1	1548	3638
1	1517	3639
1	1490	3640
1	1473	3641
1	1461	3642
1	1469	3643
1	1490	3644
1	1524	3645
1	1562	3646
1	1602	3647
1	1632	3648
1	1657	3649
1	1674	3650
1	1686	3651
1	1685	3652
1	1672	3653
1	1661	3654
1	1647	3655
1	1625	3656
1	1597	3657
1	1554	3658
1	1508	3659
1	1476	3660
1	1464	3661
1	1471	3662
1	1490	3663
1	1517	3664
1	1548	3665
1	1582	3666
1	1611	3667
1	1634	3668
1	1652	3669
1	1675	3670
1	1689	3671
1	1694	3672
1	1700	3673
1	1696	3674
1	1684	3675
1	1667	3676
1	1659	3677
1	1654	3678
1	1652	3679
1	1652	3680
1	1647	3681
1	1629	3682
1	1594	3683
1	1571	3684
1	1555	3685
1	1556	3686
1	1581	3687
1	1616	3688
1	1647	3689
1	1680	3690
1	1708	3691
1	1724	3692
1	1734	3693
1	1731	3694
1	1719	3695
1	1703	3696
1	1681	3697
1	1647	3698
1	1605	3699
1	1564	3700
1	1542	3701
1	1528	3702
1	1526	3703
1	1529	3704
1	1544	3705
1	1568	3706
1	1607	3707
1	1643	3708
1	1672	3709
1	1697	3710
1	1710	3711
1	1715	3712
1	1700	3713
1	1681	3714
1	1658	3715
1	1632	3716
1	1607	3717
1	1598	3718
1	1594	3719
1	1596	3720
1	1600	3721
1	1598	3722
1	1602	3723
1	1607	3724
1	1622	3725
1	1633	3726
1	1639	3727
1	1647	3728
1	1664	3729
1	1679	3730
1	1686	3731
1	1697	3732
1	1699	3733
1	1703	3734
1	1707	3735
1	1694	3736
1	1683	3737
1	1662	3738
1	1647	3739
1	1638	3740
1	1637	3741
1	1634	3742
1	1622	3743
1	1611	3744
1	1611	3745
1	1624	3746
1	1638	3747
1	1654	3748
1	1656	3749
1	1661	3750
1	1667	3751
1	1674	3752
1	1687	3753
1	1703	3754
1	1712	3755
1	1710	3756
1	1698	3757
1	1672	3758
1	1652	3759
1	1647	3760
1	1647	3761
1	1645	3762
1	1652	3763
1	1659	3764
1	1668	3765
1	1680	3766
1	1690	3767
1	1699	3768
1	1710	3769
1	1712	3770
1	1712	3771
1	1717	3772
1	1716	3773
1	1712	3774
1	1693	3775
1	1664	3776
1	1633	3777
1	1600	3778
1	1566	3779
1	1538	3780
1	1525	3781
1	1529	3782
1	1554	3783
1	1588	3784
1	1629	3785
1	1661	3786
1	1700	3787
1	1733	3788
1	1764	3789
1	1782	3790
1	1791	3791
1	1802	3792
1	1791	3793
1	1778	3794
1	1764	3795
1	1742	3796
1	1712	3797
1	1678	3798
1	1639	3799
1	1607	3800
1	1581	3801
1	1576	3802
1	1581	3803
1	1593	3804
1	1616	3805
1	1637	3806
1	1660	3807
1	1691	3808
1	1708	3809
1	1720	3810
1	1728	3811
1	1731	3812
1	1720	3813
1	1704	3814
1	1686	3815
1	1665	3816
1	1649	3817
1	1629	3818
1	1619	3819
1	1610	3820
1	1605	3821
1	1595	3822
1	1600	3823
1	1608	3824
1	1626	3825
1	1652	3826
1	1675	3827
1	1692	3828
1	1701	3829
1	1719	3830
1	1733	3831
1	1737	3832
1	1738	3833
1	1739	3834
1	1737	3835
1	1729	3836
1	1714	3837
1	1698	3838
1	1682	3839
1	1661	3840
1	1655	3841
1	1657	3842
1	1660	3843
1	1672	3844
1	1688	3845
1	1707	3846
1	1718	3847
1	1718	3848
1	1718	3849
1	1712	3850
1	1697	3851
1	1679	3852
1	1670	3853
1	1661	3854
1	1652	3855
1	1620	3856
1	1581	3857
1	1557	3858
1	1557	3859
1	1571	3860
1	1584	3861
1	1589	3862
1	1581	3863
1	1566	3864
1	1549	3865
1	1543	3866
1	1560	3867
1	1598	3868
1	1632	3869
1	1661	3870
1	1699	3871
1	1736	3872
1	1755	3873
1	1755	3874
1	1746	3875
1	1724	3876
1	1703	3877
1	1675	3878
1	1661	3879
1	1659	3880
1	1655	3881
1	1649	3882
1	1658	3883
1	1661	3884
1	1661	3885
1	1648	3886
1	1647	3887
1	1651	3888
1	1661	3889
1	1667	3890
1	1670	3891
1	1670	3892
1	1665	3893
1	1661	3894
1	1656	3895
1	1631	3896
1	1595	3897
1	1551	3898
1	1515	3899
1	1492	3900
1	1490	3901
1	1510	3902
1	1543	3903
1	1587	3904
1	1628	3905
1	1661	3906
1	1692	3907
1	1720	3908
1	1748	3909
1	1763	3910
1	1756	3911
1	1744	3912
1	1731	3913
1	1708	3914
1	1682	3915
1	1652	3916
1	1621	3917
1	1595	3918
1	1581	3919
1	1573	3920
1	1563	3921
1	1556	3922
1	1549	3923
1	1551	3924
1	1556	3925
1	1576	3926
1	1599	3927
1	1633	3928
1	1652	3929
1	1661	3930
1	1674	3931
1	1672	3932
1	1657	3933
1	1626	3934
1	1602	3935
1	1583	3936
1	1564	3937
1	1542	3938
1	1517	3939
1	1499	3940
1	1492	3941
1	1502	3942
1	1521	3943
1	1541	3944
1	1584	3945
1	1634	3946
1	1686	3947
1	1734	3948
1	1770	3949
1	1791	3950
1	1800	3951
1	1799	3952
1	1788	3953
1	1769	3954
1	1742	3955
1	1706	3956
1	1668	3957
1	1637	3958
1	1607	3959
1	1581	3960
1	1566	3961
1	1555	3962
1	1555	3963
1	1563	3964
1	1580	3965
1	1611	3966
1	1670	3967
1	1728	3968
1	1791	3969
1	1847	3970
1	1881	3971
1	1896	3972
1	1895	3973
1	1868	3974
1	1826	3975
1	1770	3976
1	1723	3977
1	1682	3978
1	1654	3979
1	1643	3980
1	1634	3981
1	1632	3982
1	1630	3983
1	1634	3984
1	1646	3985
1	1655	3986
1	1665	3987
1	1687	3988
1	1705	3989
1	1720	3990
1	1729	3991
1	1734	3992
1	1736	3993
1	1718	3994
1	1701	3995
1	1675	3996
1	1645	3997
1	1600	3998
1	1560	3999
1	1521	4000
1	1490	4001
1	1477	4002
1	1502	4003
1	1528	4004
1	1555	4005
1	1585	4006
1	1622	4006
1	1663	4008
1	1712	4009
1	1755	4010
1	1788	4011
1	1813	4012
1	1817	4013
1	1819	4014
1	1818	4014
1	1808	4016
1	1778	4017
1	1744	4018
1	1704	4019
1	1602	4040
1	1593	4041
1	1599	4042
1	1610	4043
1	1632	4044
1	1648	4045
1	1669	4046
1	1688	4046
1	1729	4048
1	1773	4049
1	1818	4050
1	1848	4051
1	1859	4052
1	1859	4053
1	1851	4054
1	1830	4054
1	1788	4056
1	1749	4057
1	1718	4058
1	1688	4059
1	1663	4020
1	1634	4021
1	1622	4022
1	1634	4022
1	1652	4024
1	1669	4025
1	1685	4026
1	1710	4027
1	1739	4028
1	1786	4029
1	1832	4030
1	1858	4030
1	1871	4032
1	1869	4033
1	1847	4034
1	1814	4035
1	1766	4036
1	1728	4037
1	1679	4038
1	1633	4038
1	1658	4060
1	1634	4061
1	1623	4062
1	1621	4062
1	1616	4064
1	1611	4065
1	1613	4066
1	1623	4067
1	1634	4068
1	1643	4069
1	1667	4070
1	1688	4070
1	1705	4072
1	1712	4073
1	1716	4074
1	1713	4075
1	1708	4076
1	1700	4077
1	1692	4078
1	1677	4078
1	1655	4080
1	1652	4081
1	1648	4082
1	1650	4083
1	1658	4084
1	1664	4085
1	1681	4086
1	1697	4086
1	1712	4088
1	1739	4089
1	1769	4090
1	1801	4091
1	1829	4092
1	1845	4093
1	1845	4094
1	1838	4094
1	1818	4096
1	1790	4097
1	1749	4098
1	1698	4099
1	1643	4100
1	1602	4101
1	1578	4102
1	1559	4103
1	1562	4104
1	1579	4105
1	1595	4106
1	1621	4107
1	1660	4108
1	1692	4109
1	1723	4110
1	1740	4111
1	1757	4112
1	1779	4113
1	1803	4114
1	1824	4115
1	1825	4116
1	1825	4117
1	1817	4118
1	1800	4119
1	1787	4120
1	1775	4121
1	1772	4122
1	1781	4123
1	1787	4124
1	1791	4125
1	1801	4126
1	1817	4127
1	1823	4128
1	1818	4129
1	1817	4130
1	1811	4131
1	1795	4132
1	1782	4133
1	1770	4134
1	1764	4135
1	1762	4136
1	1760	4137
1	1759	4138
1	1751	4139
1	1738	4140
1	1723	4141
1	1705	4142
1	1686	4143
1	1665	4144
1	1649	4145
1	1636	4146
1	1634	4147
1	1634	4148
1	1650	4149
1	1673	4150
1	1700	4151
1	1724	4152
1	1749	4153
1	1760	4154
1	1763	4155
1	1761	4156
1	1751	4157
1	1724	4158
1	1688	4159
1	1639	4180
1	1616	4181
1	1606	4182
1	1608	4183
1	1616	4184
1	1629	4185
1	1647	4186
1	1673	4187
1	1693	4188
1	1706	4189
1	1708	4190
1	1705	4191
1	1703	4192
1	1687	4193
1	1679	4194
1	1685	4195
1	1708	4196
1	1725	4197
1	1738	4198
1	1739	4199
1	1742	4200
1	1751	4201
1	1754	4202
1	1746	4203
1	1724	4204
1	1690	4205
1	1660	4206
1	1634	4207
1	1620	4208
1	1612	4209
1	1617	4210
1	1626	4211
1	1634	4212
1	1638	4213
1	1629	4214
1	1610	4215
1	1602	4216
1	1594	4217
1	1593	4218
1	1589	4219
1	1652	4160
1	1624	4161
1	1608	4162
1	1595	4163
1	1600	4164
1	1615	4165
1	1628	4166
1	1634	4167
1	1651	4168
1	1665	4169
1	1677	4170
1	1688	4171
1	1706	4172
1	1721	4173
1	1727	4174
1	1720	4175
1	1711	4176
1	1703	4177
1	1685	4178
1	1664	4179
1	1580	4220
1	1568	4221
1	1569	4222
1	1575	4223
1	1586	4224
1	1608	4225
1	1634	4226
1	1667	4227
1	1718	4228
1	1773	4229
1	1828	4230
1	1890	4231
1	1935	4232
1	1970	4233
1	2000	4234
1	2027	4235
1	2043	4236
1	2057	4237
1	2065	4238
1	2066	4239
1	2066	4240
1	2075	4241
1	2103	4242
1	2133	4243
1	2170	4244
1	2205	4245
1	2238	4246
1	2273	4247
1	2300	4248
1	2315	4249
1	2318	4250
1	2297	4251
1	2263	4252
1	2215	4253
1	2170	4254
1	2117	4255
1	2052	4256
1	1985	4257
1	1926	4258
1	1868	4259
1	1643	4280
1	1613	4281
1	1594	4282
1	1586	4283
1	1589	4284
1	1590	4285
1	1589	4286
1	1594	4287
1	1611	4288
1	1634	4289
1	1661	4290
1	1692	4291
1	1716	4292
1	1726	4293
1	1710	4294
1	1677	4295
1	1636	4296
1	1607	4297
1	1577	4298
1	1553	4299
1	1813	4260
1	1769	4261
1	1746	4262
1	1737	4263
1	1738	4264
1	1741	4265
1	1751	4266
1	1755	4267
1	1752	4268
1	1761	4269
1	1775	4270
1	1780	4271
1	1773	4272
1	1764	4273
1	1742	4274
1	1728	4275
1	1713	4276
1	1704	4277
1	1690	4278
1	1673	4279
1	1538	4300
1	1531	4301
1	1539	4302
1	1570	4303
1	1605	4304
1	1634	4305
1	1658	4306
1	1678	4307
1	1700	4308
1	1727	4309
1	1747	4310
1	1760	4311
1	1764	4312
1	1757	4313
1	1749	4314
1	1734	4315
1	1711	4316
1	1682	4317
1	1645	4318
1	1602	4319
1	1660	4340
1	1631	4341
1	1607	4342
1	1597	4343
1	1594	4344
1	1597	4345
1	1604	4346
1	1614	4347
1	1636	4348
1	1664	4349
1	1704	4350
1	1733	4351
1	1749	4352
1	1754	4353
1	1742	4354
1	1712	4355
1	1670	4356
1	1622	4357
1	1575	4358
1	1550	4359
1	1538	4360
1	1531	4361
1	1546	4362
1	1580	4363
1	1608	4364
1	1639	4365
1	1661	4366
1	1683	4367
1	1701	4368
1	1732	4369
1	1763	4370
1	1783	4371
1	1790	4372
1	1788	4373
1	1787	4374
1	1787	4375
1	1767	4376
1	1738	4377
1	1703	4378
1	1673	4379
1	1570	4320
1	1557	4321
1	1568	4322
1	1590	4323
1	1616	4324
1	1635	4325
1	1651	4326
1	1664	4327
1	1676	4328
1	1688	4329
1	1701	4330
1	1710	4331
1	1716	4332
1	1724	4333
1	1734	4334
1	1741	4335
1	1743	4336
1	1739	4337
1	1724	4338
1	1697	4339
1	1649	4380
1	1634	4381
1	1623	4382
1	1615	4383
1	1616	4384
1	1628	4385
1	1646	4386
1	1674	4387
1	1698	4388
1	1725	4389
1	1749	4390
1	1761	4391
1	1768	4392
1	1778	4393
1	1778	4394
1	1764	4395
1	1744	4396
1	1724	4397
1	1704	4398
1	1680	4399
1	1647	4400
1	1613	4401
1	1593	4402
1	1576	4403
1	1572	4404
1	1575	4405
1	1584	4406
1	1609	4407
1	1643	4408
1	1674	4409
1	1710	4410
1	1738	4411
1	1764	4412
1	1782	4413
1	1795	4414
1	1794	4415
1	1780	4416
1	1756	4417
1	1716	4418
1	1679	4419
1	1634	4440
1	1622	4441
1	1631	4442
1	1642	4443
1	1652	4444
1	1657	4445
1	1661	4446
1	1670	4447
1	1670	4448
1	1679	4449
1	1697	4450
1	1712	4451
1	1734	4452
1	1764	4453
1	1785	4454
1	1803	4455
1	1821	4456
1	1830	4457
1	1831	4458
1	1819	4459
1	1652	4420
1	1634	4421
1	1622	4422
1	1616	4423
1	1618	4424
1	1638	4425
1	1661	4426
1	1679	4427
1	1695	4428
1	1699	4429
1	1708	4430
1	1713	4431
1	1712	4432
1	1709	4433
1	1699	4434
1	1697	4435
1	1690	4436
1	1682	4437
1	1663	4438
1	1646	4439
1	1799	4460
1	1778	4461
1	1757	4462
1	1730	4463
1	1703	4464
1	1682	4465
1	1668	4466
1	1662	4467
1	1683	4468
1	1703	4469
1	1726	4470
1	1740	4471
1	1746	4472
1	1749	4473
1	1741	4474
1	1723	4475
1	1692	4476
1	1661	4477
1	1626	4478
1	1598	4479
1	1576	4480
1	1550	4481
1	1521	4482
1	1504	4483
1	1505	4484
1	1521	4485
1	1554	4486
1	1594	4487
1	1632	4488
1	1660	4489
1	1681	4490
1	1695	4491
1	1704	4492
1	1698	4493
1	1691	4494
1	1700	4495
1	1710	4496
1	1715	4497
1	1718	4498
1	1710	4499
1	1699	4500
1	1688	4501
1	1686	4502
1	1684	4503
1	1683	4504
1	1677	4505
1	1673	4506
1	1670	4507
1	1660	4508
1	1659	4509
1	1651	4510
1	1647	4511
1	1649	4512
1	1660	4513
1	1662	4514
1	1674	4515
1	1682	4516
1	1688	4517
1	1696	4518
1	1703	4519
1	1705	4520
1	1706	4521
1	1708	4522
1	1703	4523
1	1700	4524
1	1697	4525
1	1696	4526
1	1712	4527
1	1736	4528
1	1751	4529
1	1751	4530
1	1757	4531
1	1760	4532
1	1751	4533
1	1723	4534
1	1688	4535
1	1661	4536
1	1641	4537
1	1630	4538
1	1622	4539
1	1618	4540
1	1607	4541
1	1600	4542
1	1593	4543
1	1597	4544
1	1596	4545
1	1616	4546
1	1652	4547
1	1682	4548
1	1710	4549
1	1733	4550
1	1751	4551
1	1764	4552
1	1755	4553
1	1743	4554
1	1724	4555
1	1694	4556
1	1660	4557
1	1639	4558
1	1620	4559
1	1610	4560
1	1607	4561
1	1609	4562
1	1631	4563
1	1660	4564
1	1692	4565
1	1717	4566
1	1738	4567
1	1751	4568
1	1769	4569
1	1782	4570
1	1791	4571
1	1786	4572
1	1781	4573
1	1765	4574
1	1749	4575
1	1716	4576
1	1675	4577
1	1634	4578
1	1602	4579
1	1579	4580
1	1557	4581
1	1542	4582
1	1535	4583
1	1555	4584
1	1580	4585
1	1594	4586
1	1611	4587
1	1635	4588
1	1657	4589
1	1675	4590
1	1695	4591
1	1712	4592
1	1727	4593
1	1738	4594
1	1742	4595
1	1747	4596
1	1729	4597
1	1692	4598
1	1651	4599
1	1613	4600
1	1574	4601
1	1547	4602
1	1539	4603
1	1533	4604
1	1543	4605
1	1574	4606
1	1615	4607
1	1664	4608
1	1709	4609
1	1741	4610
1	1772	4611
1	1796	4612
1	1812	4613
1	1814	4614
1	1809	4615
1	1790	4616
1	1759	4617
1	1734	4618
1	1700	4619
1	1662	4620
1	1622	4621
1	1582	4622
1	1553	4623
1	1540	4624
1	1539	4625
1	1554	4626
1	1581	4627
1	1610	4628
1	1647	4629
1	1686	4630
1	1716	4631
1	1751	4632
1	1782	4633
1	1800	4634
1	1814	4635
1	1814	4636
1	1813	4637
1	1795	4638
1	1768	4639
1	1740	4640
1	1712	4641
1	1686	4642
1	1659	4643
1	1635	4644
1	1620	4645
1	1619	4646
1	1634	4647
1	1657	4648
1	1672	4649
1	1685	4650
1	1697	4651
1	1703	4652
1	1703	4653
1	1689	4654
1	1660	4655
1	1625	4656
1	1598	4657
1	1582	4658
1	1590	4659
1	1607	4660
1	1625	4661
1	1644	4662
1	1664	4663
1	1680	4664
1	1692	4665
1	1703	4666
1	1714	4667
1	1733	4668
1	1749	4669
1	1764	4670
1	1778	4671
1	1788	4672
1	1782	4673
1	1765	4674
1	1751	4675
1	1737	4676
1	1727	4677
1	1730	4678
1	1730	4679
1	1724	4680
1	1713	4681
1	1699	4682
1	1685	4683
1	1668	4684
1	1652	4685
1	1634	4686
1	1620	4687
1	1603	4688
1	1598	4689
1	1604	4690
1	1607	4691
1	1604	4692
1	1607	4693
1	1607	4694
1	1611	4695
1	1618	4696
1	1621	4697
1	1634	4698
1	1647	4699
1	1660	4700
1	1672	4701
1	1679	4702
1	1674	4703
1	1683	4704
1	1688	4705
1	1691	4706
1	1695	4707
1	1708	4708
1	1720	4709
1	1729	4710
1	1729	4711
1	1730	4712
1	1731	4713
1	1719	4714
1	1710	4715
1	1690	4716
1	1673	4717
1	1667	4718
1	1677	4719
1	1687	4720
1	1697	4721
1	1710	4722
1	1714	4723
1	1712	4724
1	1708	4725
1	1697	4726
1	1677	4727
1	1661	4728
1	1657	4729
1	1665	4730
1	1689	4731
1	1705	4732
1	1708	4733
1	1700	4734
1	1686	4735
1	1663	4736
1	1634	4737
1	1607	4738
1	1580	4739
1	1552	4740
1	1531	4741
1	1529	4742
1	1526	4743
1	1529	4744
1	1526	4745
1	1530	4746
1	1557	4747
1	1605	4748
1	1663	4749
1	1728	4750
1	1762	4751
1	1771	4752
1	1768	4753
1	1747	4754
1	1719	4755
1	1688	4756
1	1669	4757
1	1659	4758
1	1654	4759
1	1654	4760
1	1656	4761
1	1661	4762
1	1660	4763
1	1671	4764
1	1686	4765
1	1686	4766
1	1691	4767
1	1705	4768
1	1715	4769
1	1733	4770
1	1744	4771
1	1746	4772
1	1742	4773
1	1746	4774
1	1754	4775
1	1762	4776
1	1757	4777
1	1738	4778
1	1715	4779
1	1697	4780
1	1677	4781
1	1665	4782
1	1672	4783
1	1686	4784
1	1708	4785
1	1741	4786
1	1780	4787
1	1817	4788
1	1843	4789
1	1867	4790
1	1875	4791
1	1869	4792
1	1854	4793
1	1835	4794
1	1811	4795
1	1776	4796
1	1744	4797
1	1710	4798
1	1665	4799
1	1622	4800
1	1585	4801
1	1564	4802
1	1554	4803
1	1555	4804
1	1563	4805
1	1575	4806
1	1599	4807
1	1629	4808
1	1668	4809
1	1705	4810
1	1729	4811
1	1755	4812
1	1786	4813
1	1801	4814
1	1796	4815
1	1782	4816
1	1764	4817
1	1741	4818
1	1713	4819
1	1684	4820
1	1644	4821
1	1610	4822
1	1580	4823
1	1561	4824
1	1559	4825
1	1569	4826
1	1584	4827
1	1603	4828
1	1608	4829
1	1605	4830
1	1611	4831
1	1617	4832
1	1616	4833
1	1611	4834
1	1609	4835
1	1597	4836
1	1581	4837
1	1567	4838
1	1557	4839
1	1553	4840
1	1553	4841
1	1552	4842
1	1553	4843
1	1566	4844
1	1568	4845
1	1585	4846
1	1620	4847
1	1647	4848
1	1660	4849
1	1674	4850
1	1688	4851
1	1700	4852
1	1700	4853
1	1702	4854
1	1701	4855
1	1700	4856
1	1698	4857
1	1693	4858
1	1670	4859
1	1643	4860
1	1617	4861
1	1603	4862
1	1590	4863
1	1582	4864
1	1583	4865
1	1584	4866
1	1585	4867
1	1595	4868
1	1613	4869
1	1636	4870
1	1660	4871
1	1678	4872
1	1687	4873
1	1687	4874
1	1684	4875
1	1670	4876
1	1644	4877
1	1608	4878
1	1581	4879
1	1548	4880
1	1525	4881
1	1513	4882
1	1510	4883
1	1526	4884
1	1543	4885
1	1555	4886
1	1566	4887
1	1593	4888
1	1628	4889
1	1665	4890
1	1712	4891
1	1764	4892
1	1826	4893
1	1882	4894
1	1932	4895
1	1974	4896
1	2008	4897
1	2026	4898
1	2044	4899
1	2066	4900
1	2079	4901
1	2096	4902
1	2121	4903
1	2147	4904
1	2166	4905
1	2174	4906
1	2174	4907
1	2181	4908
1	2196	4909
1	2214	4910
1	2236	4911
1	2243	4912
1	2233	4913
1	2202	4914
1	2165	4915
1	2127	4916
1	2079	4917
1	2029	4918
1	1956	4919
1	1870	4920
1	1782	4921
1	1707	4922
1	1652	4923
1	1608	4924
1	1574	4925
1	1553	4926
1	1544	4927
1	1547	4928
1	1580	4929
1	1634	4930
1	1682	4931
1	1717	4932
1	1744	4933
1	1742	4934
1	1729	4935
1	1716	4936
1	1686	4937
1	1634	4938
1	1589	4939
1	1551	4940
1	1526	4941
1	1506	4942
1	1505	4943
1	1517	4944
1	1526	4945
1	1538	4946
1	1564	4947
1	1595	4948
1	1634	4949
1	1643	4950
1	1662	4951
1	1673	4952
1	1671	4953
1	1661	4954
1	1638	4955
1	1607	4956
1	1584	4957
1	1566	4958
1	1557	4959
1	1562	4960
1	1572	4961
1	1578	4962
1	1577	4963
1	1571	4964
1	1562	4965
1	1555	4966
1	1555	4967
1	1560	4968
1	1580	4969
1	1602	4970
1	1624	4971
1	1634	4972
1	1634	4973
1	1631	4974
1	1630	4975
1	1632	4976
1	1634	4977
1	1638	4978
1	1634	4979
1	1598	5000
1	1591	5001
1	1577	5002
1	1555	5003
1	1546	5004
1	1548	5005
1	1555	5006
1	1569	5007
1	1597	5008
1	1634	5009
1	1667	5010
1	1693	5011
1	1715	5012
1	1733	5013
1	1738	5014
1	1734	5015
1	1714	5016
1	1685	5017
1	1635	5018
1	1587	5019
1	1616	4980
1	1605	4981
1	1603	4982
1	1607	4983
1	1611	4984
1	1620	4985
1	1629	4986
1	1643	4987
1	1664	4988
1	1693	4989
1	1714	4990
1	1715	4991
1	1703	4992
1	1686	4993
1	1670	4994
1	1652	4995
1	1634	4996
1	1616	4997
1	1607	4998
1	1604	4999
1	1539	5020
1	1499	5021
1	1471	5022
1	1461	5023
1	1464	5024
1	1472	5025
1	1492	5026
1	1535	5027
1	1593	5028
1	1658	5029
1	1716	5030
1	1773	5031
1	1814	5032
1	1834	5033
1	1842	5034
1	1842	5035
1	1827	5036
1	1801	5037
1	1779	5038
1	1759	5039
1	1726	5040
1	1701	5041
1	1686	5042
1	1667	5043
1	1652	5044
1	1648	5045
1	1647	5046
1	1649	5047
1	1643	5048
1	1644	5049
1	1649	5050
1	1657	5051
1	1662	5052
1	1681	5053
1	1686	5054
1	1685	5055
1	1672	5056
1	1650	5057
1	1631	5058
1	1608	5059
1	1608	5080
1	1580	5081
1	1556	5082
1	1555	5083
1	1555	5084
1	1551	5085
1	1553	5086
1	1560	5087
1	1589	5088
1	1634	5089
1	1686	5090
1	1722	5091
1	1749	5092
1	1749	5093
1	1739	5094
1	1735	5095
1	1724	5096
1	1711	5097
1	1697	5098
1	1665	5099
1	1607	5060
1	1616	5061
1	1629	5062
1	1633	5063
1	1638	5064
1	1643	5065
1	1652	5066
1	1657	5067
1	1665	5068
1	1674	5069
1	1691	5070
1	1712	5071
1	1736	5072
1	1747	5073
1	1748	5074
1	1740	5075
1	1726	5076
1	1701	5077
1	1669	5078
1	1643	5079
1	1635	5100
1	1611	5101
1	1598	5102
1	1600	5103
1	1611	5104
1	1632	5105
1	1649	5106
1	1683	5107
1	1715	5108
1	1751	5109
1	1770	5110
1	1791	5111
1	1814	5112
1	1830	5113
1	1834	5114
1	1842	5115
1	1843	5116
1	1825	5117
1	1793	5118
1	1757	5119
1	1731	5120
1	1704	5121
1	1686	5122
1	1660	5123
1	1635	5124
1	1622	5125
1	1612	5126
1	1607	5127
1	1610	5128
1	1616	5129
1	1615	5130
1	1625	5131
1	1634	5132
1	1656	5133
1	1670	5134
1	1685	5135
1	1692	5136
1	1697	5137
1	1703	5138
1	1705	5139
1	1701	5140
1	1695	5141
1	1690	5142
1	1687	5143
1	1695	5144
1	1715	5145
1	1739	5146
1	1764	5147
1	1776	5148
1	1772	5149
1	1755	5150
1	1741	5151
1	1733	5152
1	1721	5153
1	1711	5154
1	1709	5155
1	1702	5156
1	1698	5157
1	1699	5158
1	1691	5159
1	1665	5160
1	1638	5161
1	1612	5162
1	1598	5163
1	1593	5164
1	1589	5165
1	1599	5166
1	1626	5167
1	1643	5168
1	1660	5169
1	1673	5170
1	1680	5171
1	1675	5172
1	1668	5173
1	1647	5174
1	1616	5175
1	1586	5176
1	1564	5177
1	1542	5178
1	1521	5179
1	1511	5180
1	1514	5181
1	1530	5182
1	1547	5183
1	1572	5184
1	1599	5185
1	1629	5186
1	1664	5187
1	1705	5188
1	1738	5189
1	1760	5190
1	1767	5191
1	1767	5192
1	1762	5193
1	1755	5194
1	1752	5195
1	1745	5196
1	1724	5197
1	1700	5198
1	1686	5199
1	1683	5200
1	1679	5201
1	1677	5202
1	1677	5203
1	1665	5204
1	1657	5205
1	1652	5206
1	1649	5207
1	1658	5208
1	1664	5209
1	1670	5210
1	1683	5211
1	1691	5212
1	1695	5213
1	1705	5214
1	1712	5215
1	1719	5216
1	1715	5217
1	1710	5218
1	1686	5219
1	1659	5220
1	1634	5221
1	1611	5222
1	1584	5223
1	1555	5224
1	1536	5225
1	1535	5226
1	1559	5227
1	1591	5228
1	1647	5229
1	1716	5230
1	1769	5231
1	1812	5232
1	1827	5233
1	1841	5234
1	1826	5235
1	1808	5236
1	1773	5237
1	1724	5238
1	1669	5239
1	1619	5240
1	1584	5241
1	1576	5242
1	1580	5243
1	1593	5244
1	1607	5245
1	1625	5246
1	1647	5247
1	1669	5248
1	1685	5249
1	1701	5250
1	1726	5251
1	1736	5252
1	1729	5253
1	1715	5254
1	1701	5255
1	1690	5256
1	1682	5257
1	1677	5258
1	1668	5259
1	1659	5260
1	1643	5261
1	1639	5262
1	1651	5263
1	1652	5264
1	1652	5265
1	1655	5266
1	1657	5267
1	1661	5268
1	1669	5269
1	1679	5270
1	1691	5271
1	1703	5272
1	1699	5273
1	1697	5274
1	1691	5275
1	1683	5276
1	1667	5277
1	1661	5278
1	1655	5279
1	1694	5300
1	1670	5301
1	1646	5302
1	1621	5303
1	1607	5304
1	1604	5305
1	1600	5306
1	1607	5307
1	1623	5308
1	1642	5309
1	1662	5310
1	1689	5311
1	1720	5312
1	1746	5313
1	1775	5314
1	1800	5315
1	1818	5316
1	1823	5317
1	1815	5318
1	1802	5319
1	1638	5280
1	1625	5281
1	1608	5282
1	1596	5283
1	1593	5284
1	1586	5285
1	1579	5286
1	1576	5287
1	1583	5288
1	1613	5289
1	1656	5290
1	1705	5291
1	1747	5292
1	1778	5293
1	1787	5294
1	1787	5295
1	1782	5296
1	1769	5297
1	1746	5298
1	1718	5299
1	1791	5320
1	1764	5321
1	1739	5322
1	1720	5323
1	1700	5324
1	1685	5325
1	1673	5326
1	1671	5327
1	1679	5328
1	1692	5329
1	1716	5330
1	1741	5331
1	1764	5332
1	1790	5333
1	1809	5334
1	1809	5335
1	1791	5336
1	1773	5337
1	1755	5338
1	1730	5339
1	1700	5340
1	1675	5341
1	1663	5342
1	1652	5343
1	1641	5344
1	1630	5345
1	1620	5346
1	1618	5347
1	1622	5348
1	1634	5349
1	1652	5350
1	1679	5351
1	1706	5352
1	1731	5353
1	1739	5354
1	1738	5355
1	1731	5356
1	1718	5357
1	1700	5358
1	1667	5359
1	1630	5360
1	1600	5361
1	1594	5362
1	1590	5363
1	1593	5364
1	1605	5365
1	1616	5366
1	1644	5367
1	1680	5368
1	1712	5369
1	1740	5370
1	1767	5371
1	1786	5372
1	1791	5373
1	1788	5374
1	1787	5375
1	1782	5376
1	1767	5377
1	1740	5378
1	1707	5379
1	1667	5380
1	1634	5381
1	1611	5382
1	1610	5383
1	1618	5384
1	1634	5385
1	1651	5386
1	1668	5387
1	1677	5388
1	1686	5389
1	1687	5390
1	1697	5391
1	1705	5392
1	1710	5393
1	1707	5394
1	1706	5395
1	1698	5396
1	1682	5397
1	1682	5398
1	1682	5399
1	1674	5400
1	1661	5401
1	1656	5402
1	1664	5403
1	1677	5404
1	1688	5405
1	1693	5406
1	1693	5407
1	1692	5408
1	1705	5409
1	1724	5410
1	1744	5411
1	1755	5412
1	1760	5413
1	1744	5414
1	1718	5415
1	1701	5416
1	1683	5417
1	1660	5418
1	1639	5419
1	1623	5420
1	1608	5421
1	1610	5422
1	1616	5423
1	1625	5424
1	1634	5425
1	1649	5426
1	1676	5427
1	1710	5428
1	1739	5429
1	1769	5430
1	1791	5431
1	1796	5432
1	1793	5433
1	1777	5434
1	1755	5435
1	1729	5436
1	1701	5437
1	1677	5438
1	1654	5439
1	1634	5440
1	1625	5441
1	1620	5442
1	1610	5443
1	1600	5444
1	1597	5445
1	1602	5446
1	1616	5447
1	1638	5448
1	1676	5449
1	1715	5450
1	1754	5451
1	1783	5452
1	1801	5453
1	1823	5454
1	1842	5455
1	1856	5456
1	1859	5457
1	1850	5458
1	1817	5459
1	1635	5480
1	1618	5481
1	1611	5482
1	1607	5483
1	1605	5484
1	1598	5485
1	1597	5486
1	1600	5487
1	1607	5488
1	1632	5489
1	1667	5490
1	1700	5491
1	1718	5492
1	1717	5493
1	1703	5494
1	1681	5495
1	1660	5496
1	1641	5497
1	1618	5498
1	1600	5499
1	1773	5460
1	1729	5461
1	1690	5462
1	1662	5463
1	1644	5464
1	1632	5465
1	1634	5466
1	1659	5467
1	1686	5468
1	1712	5469
1	1737	5470
1	1752	5471
1	1759	5472
1	1764	5473
1	1762	5474
1	1744	5475
1	1733	5476
1	1710	5477
1	1687	5478
1	1661	5479
1	1584	5500
1	1565	5501
1	1554	5502
1	1555	5503
1	1562	5504
1	1576	5505
1	1593	5506
1	1621	5507
1	1651	5508
1	1675	5509
1	1705	5510
1	1729	5511
1	1744	5512
1	1740	5513
1	1729	5514
1	1705	5515
1	1682	5516
1	1659	5517
1	1648	5518
1	1632	5519
1	1596	5540
1	1577	5541
1	1557	5542
1	1540	5543
1	1529	5544
1	1530	5545
1	1535	5546
1	1551	5547
1	1581	5548
1	1607	5549
1	1634	5550
1	1660	5551
1	1680	5552
1	1683	5553
1	1677	5554
1	1669	5555
1	1662	5556
1	1660	5557
1	1656	5558
1	1660	5559
1	1612	5520
1	1584	5521
1	1550	5522
1	1523	5523
1	1508	5524
1	1514	5525
1	1535	5526
1	1562	5527
1	1581	5528
1	1616	5529
1	1659	5530
1	1686	5531
1	1702	5532
1	1712	5533
1	1711	5534
1	1694	5535
1	1675	5536
1	1660	5537
1	1637	5538
1	1618	5539
1	1677	5560
1	1712	5561
1	1754	5562
1	1817	5563
1	1873	5564
1	1939	5565
1	2001	5566
1	2066	5567
1	2124	5568
1	2180	5569
1	2245	5570
1	2300	5571
1	2349	5572
1	2367	5573
1	2365	5574
1	2342	5575
1	2305	5576
1	2251	5577
1	2202	5578
1	2145	5579
1	2083	5580
1	2021	5581
1	1962	5582
1	1908	5583
1	1849	5584
1	1791	5585
1	1753	5586
1	1726	5587
1	1708	5588
1	1710	5589
1	1726	5590
1	1746	5591
1	1751	5592
1	1751	5593
1	1741	5594
1	1720	5595
1	1699	5596
1	1679	5597
1	1660	5598
1	1636	5599
1	1620	5600
1	1602	5601
1	1582	5602
1	1565	5603
1	1557	5604
1	1556	5605
1	1555	5606
1	1557	5607
1	1581	5608
1	1602	5609
1	1620	5610
1	1641	5611
1	1664	5612
1	1674	5613
1	1661	5614
1	1634	5615
1	1602	5616
1	1566	5617
1	1534	5618
1	1514	5619
1	1500	5620
1	1490	5621
1	1494	5622
1	1518	5623
1	1554	5624
1	1595	5625
1	1634	5626
1	1664	5627
1	1688	5628
1	1702	5629
1	1711	5630
1	1712	5631
1	1702	5632
1	1686	5633
1	1651	5634
1	1611	5635
1	1581	5636
1	1555	5637
1	1553	5638
1	1561	5639
1	1607	5660
1	1592	5661
1	1575	5662
1	1551	5663
1	1529	5664
1	1503	5665
1	1487	5666
1	1489	5667
1	1506	5668
1	1531	5669
1	1566	5670
1	1608	5671
1	1651	5672
1	1674	5673
1	1684	5674
1	1675	5675
1	1660	5676
1	1647	5677
1	1623	5678
1	1598	5679
1	1589	5680
1	1590	5681
1	1595	5682
1	1610	5683
1	1620	5684
1	1622	5685
1	1613	5686
1	1607	5687
1	1602	5688
1	1605	5689
1	1611	5690
1	1634	5691
1	1660	5692
1	1685	5693
1	1711	5694
1	1728	5695
1	1741	5696
1	1737	5697
1	1723	5698
1	1694	5699
1	1574	5640
1	1580	5641
1	1577	5642
1	1562	5643
1	1556	5644
1	1561	5645
1	1564	5646
1	1571	5647
1	1579	5648
1	1595	5649
1	1623	5650
1	1651	5651
1	1669	5652
1	1682	5653
1	1683	5654
1	1678	5655
1	1673	5656
1	1662	5657
1	1647	5658
1	1629	5659
1	1665	5700
1	1644	5701
1	1634	5702
1	1631	5703
1	1634	5704
1	1629	5705
1	1625	5706
1	1632	5707
1	1634	5708
1	1651	5709
1	1671	5710
1	1692	5711
1	1704	5712
1	1712	5713
1	1713	5714
1	1715	5715
1	1711	5716
1	1700	5717
1	1688	5718
1	1685	5719
1	1674	5720
1	1659	5721
1	1638	5722
1	1618	5723
1	1610	5724
1	1611	5725
1	1620	5726
1	1640	5727
1	1667	5728
1	1688	5729
1	1710	5730
1	1733	5731
1	1738	5732
1	1733	5733
1	1712	5734
1	1686	5735
1	1652	5736
1	1633	5737
1	1618	5738
1	1615	5739
1	1628	5740
1	1631	5741
1	1629	5742
1	1638	5743
1	1645	5744
1	1649	5745
1	1652	5746
1	1652	5747
1	1652	5748
1	1652	5749
1	1674	5750
1	1712	5751
1	1764	5752
1	1796	5753
1	1818	5754
1	1817	5755
1	1796	5756
1	1760	5757
1	1714	5758
1	1660	5759
1	1618	5760
1	1595	5761
1	1584	5762
1	1589	5763
1	1595	5764
1	1605	5765
1	1607	5766
1	1611	5767
1	1611	5768
1	1623	5769
1	1643	5770
1	1665	5771
1	1695	5772
1	1718	5773
1	1737	5774
1	1751	5775
1	1767	5776
1	1776	5777
1	1769	5778
1	1752	5779
1	1738	5780
1	1718	5781
1	1712	5782
1	1706	5783
1	1708	5784
1	1717	5785
1	1721	5786
1	1722	5787
1	1725	5788
1	1723	5789
1	1728	5790
1	1738	5791
1	1749	5792
1	1750	5793
1	1738	5794
1	1720	5795
1	1705	5796
1	1689	5797
1	1667	5798
1	1649	5799
1	1638	5800
1	1634	5801
1	1623	5802
1	1620	5803
1	1611	5804
1	1611	5805
1	1611	5806
1	1616	5807
1	1642	5808
1	1679	5809
1	1715	5810
1	1749	5811
1	1773	5812
1	1775	5813
1	1772	5814
1	1763	5815
1	1751	5816
1	1737	5817
1	1723	5818
1	1703	5819
1	1684	5820
1	1667	5821
1	1652	5822
1	1641	5823
1	1634	5824
1	1636	5825
1	1655	5826
1	1687	5827
1	1705	5828
1	1716	5829
1	1726	5830
1	1731	5831
1	1738	5832
1	1738	5833
1	1744	5834
1	1749	5835
1	1741	5836
1	1734	5837
1	1712	5838
1	1695	5839
1	1672	5840
1	1646	5841
1	1621	5842
1	1603	5843
1	1594	5844
1	1597	5845
1	1607	5846
1	1620	5847
1	1643	5848
1	1660	5849
1	1678	5850
1	1695	5851
1	1708	5852
1	1716	5853
1	1724	5854
1	1717	5855
1	1703	5856
1	1685	5857
1	1662	5858
1	1656	5859
1	1657	5860
1	1661	5861
1	1674	5862
1	1695	5863
1	1707	5864
1	1706	5865
1	1705	5866
1	1707	5867
1	1715	5868
1	1733	5869
1	1751	5870
1	1764	5871
1	1773	5872
1	1767	5873
1	1763	5874
1	1752	5875
1	1738	5876
1	1718	5877
1	1707	5878
1	1686	5879
1	1663	5880
1	1638	5881
1	1618	5882
1	1596	5883
1	1577	5884
1	1568	5885
1	1566	5886
1	1578	5887
1	1597	5888
1	1622	5889
1	1651	5890
1	1681	5891
1	1711	5892
1	1738	5893
1	1753	5894
1	1764	5895
1	1760	5896
1	1751	5897
1	1740	5898
1	1716	5899
1	1680	5900
1	1634	5901
1	1594	5902
1	1556	5903
1	1536	5904
1	1529	5905
1	1534	5906
1	1554	5907
1	1585	5908
1	1620	5909
1	1656	5910
1	1688	5911
1	1715	5912
1	1737	5913
1	1751	5914
1	1763	5915
1	1775	5916
1	1785	5917
1	1778	5918
1	1764	5919
1	1733	5920
1	1690	5921
1	1649	5922
1	1626	5923
1	1607	5924
1	1594	5925
1	1585	5926
1	1584	5927
1	1596	5928
1	1618	5929
1	1647	5930
1	1683	5931
1	1707	5932
1	1723	5933
1	1724	5934
1	1726	5935
1	1729	5936
1	1729	5937
1	1707	5938
1	1668	5939
1	1630	5940
1	1595	5941
1	1581	5942
1	1578	5943
1	1582	5944
1	1592	5945
1	1594	5946
1	1603	5947
1	1618	5948
1	1659	5949
1	1708	5950
1	1751	5951
1	1789	5952
1	1824	5953
1	1837	5954
1	1836	5955
1	1822	5956
1	1791	5957
1	1754	5958
1	1714	5959
1	1671	5960
1	1634	5961
1	1607	5962
1	1587	5963
1	1581	5964
1	1584	5965
1	1594	5966
1	1608	5967
1	1629	5968
1	1643	5969
1	1657	5970
1	1669	5971
1	1684	5972
1	1697	5973
1	1715	5974
1	1733	5975
1	1739	5976
1	1738	5977
1	1719	5978
1	1705	5979
1	1690	5980
1	1673	5981
1	1660	5982
1	1655	5983
1	1652	5984
1	1652	5985
1	1656	5986
1	1661	5987
1	1663	5988
1	1668	5989
1	1686	5990
1	1705	5991
1	1711	5992
1	1706	5993
1	1697	5994
1	1683	5995
1	1675	5996
1	1674	5997
1	1680	5998
1	1686	5999
1	1697	6000
1	1705	6001
1	1710	6002
1	1710	6003
1	1711	6004
1	1710	6005
1	1710	6006
1	1711	6007
1	1712	6008
1	1725	6009
1	1738	6010
1	1747	6011
1	1760	6012
1	1762	6013
1	1760	6014
1	1756	6015
1	1749	6016
1	1738	6017
1	1725	6018
1	1712	6019
1	1690	6020
1	1665	6021
1	1645	6022
1	1624	6023
1	1611	6024
1	1600	6025
1	1593	6026
1	1589	6027
1	1600	6028
1	1617	6029
1	1634	6030
1	1667	6031
1	1692	6032
1	1730	6033
1	1753	6034
1	1778	6035
1	1796	6036
1	1809	6037
1	1803	6038
1	1782	6039
1	1744	6040
1	1709	6041
1	1678	6042
1	1658	6043
1	1647	6044
1	1641	6045
1	1642	6046
1	1647	6047
1	1645	6048
1	1647	6049
1	1656	6050
1	1665	6051
1	1686	6052
1	1704	6053
1	1722	6054
1	1737	6055
1	1743	6056
1	1756	6057
1	1764	6058
1	1757	6059
1	1737	6060
1	1712	6061
1	1692	6062
1	1670	6063
1	1651	6064
1	1634	6065
1	1620	6066
1	1605	6067
1	1590	6068
1	1593	6069
1	1612	6070
1	1639	6071
1	1670	6072
1	1688	6073
1	1708	6074
1	1718	6075
1	1729	6076
1	1744	6077
1	1761	6078
1	1776	6079
1	1780	6080
1	1773	6081
1	1752	6082
1	1736	6083
1	1720	6084
1	1706	6085
1	1689	6086
1	1674	6087
1	1660	6088
1	1651	6089
1	1654	6090
1	1669	6091
1	1698	6092
1	1733	6093
1	1757	6094
1	1778	6095
1	1788	6096
1	1782	6097
1	1755	6098
1	1734	6099
1	1712	6100
1	1707	6101
1	1716	6102
1	1733	6103
1	1746	6104
1	1752	6105
1	1762	6106
1	1767	6107
1	1770	6108
1	1772	6109
1	1779	6110
1	1791	6111
1	1803	6112
1	1793	6113
1	1777	6114
1	1752	6115
1	1729	6116
1	1710	6117
1	1685	6118
1	1661	6119
1	1643	6120
1	1625	6121
1	1612	6122
1	1611	6123
1	1612	6124
1	1624	6125
1	1637	6126
1	1649	6127
1	1657	6128
1	1662	6129
1	1674	6130
1	1685	6131
1	1691	6132
1	1695	6133
1	1686	6134
1	1661	6135
1	1647	6136
1	1643	6137
1	1632	6138
1	1619	6139
1	1593	6140
1	1566	6141
1	1548	6142
1	1541	6143
1	1546	6144
1	1552	6145
1	1554	6146
1	1574	6147
1	1609	6148
1	1652	6149
1	1688	6150
1	1715	6151
1	1726	6152
1	1723	6153
1	1712	6154
1	1697	6155
1	1685	6156
1	1669	6157
1	1639	6158
1	1619	6159
1	1596	6160
1	1575	6161
1	1562	6162
1	1544	6163
1	1538	6164
1	1537	6165
1	1545	6166
1	1557	6167
1	1581	6168
1	1607	6169
1	1635	6170
1	1665	6171
1	1690	6172
1	1697	6173
1	1703	6174
1	1715	6175
1	1725	6176
1	1729	6177
1	1723	6178
1	1710	6179
1	1688	6180
1	1659	6181
1	1623	6182
1	1597	6183
1	1569	6184
1	1555	6185
1	1555	6186
1	1570	6187
1	1597	6188
1	1626	6189
1	1638	6190
1	1638	6191
1	1634	6192
1	1638	6193
1	1638	6194
1	1638	6195
1	1639	6196
1	1634	6197
1	1618	6198
1	1605	6199
1	1589	6200
1	1587	6201
1	1596	6202
1	1615	6203
1	1647	6204
1	1685	6205
1	1721	6206
1	1770	6207
1	1840	6208
1	1901	6209
1	1971	6210
1	2023	6211
1	2060	6212
1	2086	6213
1	2110	6214
1	2138	6215
1	2181	6216
1	2222	6217
1	2250	6218
1	2266	6219
1	2262	6220
1	2250	6221
1	2219	6222
1	2179	6223
1	2127	6224
1	2078	6225
1	2029	6226
1	1983	6227
1	1947	6228
1	1919	6229
1	1898	6230
1	1885	6231
1	1868	6232
1	1838	6233
1	1796	6234
1	1759	6235
1	1726	6236
1	1707	6237
1	1697	6238
1	1685	6239
1	1660	6240
1	1638	6241
1	1629	6242
1	1624	6243
1	1620	6244
1	1615	6245
1	1610	6246
1	1603	6247
1	1593	6248
1	1582	6249
1	1580	6250
1	1581	6251
1	1591	6252
1	1599	6253
1	1612	6254
1	1631	6255
1	1641	6256
1	1648	6257
1	1650	6258
1	1647	6259
1	1636	6260
1	1621	6261
1	1605	6262
1	1580	6263
1	1555	6264
1	1542	6265
1	1543	6266
1	1559	6267
1	1581	6268
1	1603	6269
1	1631	6270
1	1657	6271
1	1679	6272
1	1696	6273
1	1698	6274
1	1687	6275
1	1671	6276
1	1657	6277
1	1639	6278
1	1631	6279
1	1616	6280
1	1608	6281
1	1616	6282
1	1629	6283
1	1638	6284
1	1644	6285
1	1652	6286
1	1655	6287
1	1642	6288
1	1623	6289
1	1607	6290
1	1597	6291
1	1593	6292
1	1593	6293
1	1587	6294
1	1582	6295
1	1582	6296
1	1584	6297
1	1595	6298
1	1605	6299
1	1609	6300
1	1608	6301
1	1609	6302
1	1611	6303
1	1607	6304
1	1602	6305
1	1607	6306
1	1615	6307
1	1622	6308
1	1631	6309
1	1647	6310
1	1670	6311
1	1688	6312
1	1699	6313
1	1706	6314
1	1704	6315
1	1697	6316
1	1693	6317
1	1685	6318
1	1665	6319
1	1685	6340
1	1662	6341
1	1643	6342
1	1625	6343
1	1603	6344
1	1575	6345
1	1553	6346
1	1544	6347
1	1553	6348
1	1575	6349
1	1610	6350
1	1654	6351
1	1692	6352
1	1720	6353
1	1750	6354
1	1764	6355
1	1769	6356
1	1764	6357
1	1738	6358
1	1707	6359
1	1644	6320
1	1611	6321
1	1589	6322
1	1567	6323
1	1555	6324
1	1545	6325
1	1533	6326
1	1519	6327
1	1515	6328
1	1512	6329
1	1526	6330
1	1571	6331
1	1614	6332
1	1665	6333
1	1701	6334
1	1729	6335
1	1744	6336
1	1746	6337
1	1728	6338
1	1708	6339
1	1668	6360
1	1634	6361
1	1607	6362
1	1584	6363
1	1580	6364
1	1580	6365
1	1590	6366
1	1615	6367
1	1643	6368
1	1675	6369
1	1715	6370
1	1743	6371
1	1768	6372
1	1776	6373
1	1770	6374
1	1756	6375
1	1729	6376
1	1698	6377
1	1670	6378
1	1644	6379
1	1616	6380
1	1600	6381
1	1587	6382
1	1582	6383
1	1591	6384
1	1607	6385
1	1621	6386
1	1630	6387
1	1645	6388
1	1658	6389
1	1674	6390
1	1691	6391
1	1705	6392
1	1713	6393
1	1724	6394
1	1728	6395
1	1729	6396
1	1721	6397
1	1703	6398
1	1677	6399
1	1641	6400
1	1600	6401
1	1578	6402
1	1580	6403
1	1586	6404
1	1600	6405
1	1619	6406
1	1634	6407
1	1652	6408
1	1664	6409
1	1677	6410
1	1686	6411
1	1693	6412
1	1688	6413
1	1685	6414
1	1679	6415
1	1671	6416
1	1680	6417
1	1689	6418
1	1710	6419
1	1683	6440
1	1652	6441
1	1629	6442
1	1607	6443
1	1606	6444
1	1615	6445
1	1634	6446
1	1661	6447
1	1694	6448
1	1726	6449
1	1760	6450
1	1785	6451
1	1792	6452
1	1787	6453
1	1775	6454
1	1757	6455
1	1738	6456
1	1714	6457
1	1682	6458
1	1659	6459
1	1731	6420
1	1744	6421
1	1757	6422
1	1762	6423
1	1759	6424
1	1746	6425
1	1733	6426
1	1716	6427
1	1714	6428
1	1714	6429
1	1706	6430
1	1698	6431
1	1704	6432
1	1716	6433
1	1728	6434
1	1733	6435
1	1730	6436
1	1733	6437
1	1723	6438
1	1708	6439
1	1647	6460
1	1643	6461
1	1646	6462
1	1654	6463
1	1667	6464
1	1686	6465
1	1703	6466
1	1716	6467
1	1741	6468
1	1770	6469
1	1791	6470
1	1813	6471
1	1817	6472
1	1796	6473
1	1769	6474
1	1736	6475
1	1698	6476
1	1660	6477
1	1625	6478
1	1592	6479
1	1615	6500
1	1621	6501
1	1631	6502
1	1634	6503
1	1630	6504
1	1619	6505
1	1607	6506
1	1605	6507
1	1605	6508
1	1616	6509
1	1643	6510
1	1686	6511
1	1734	6512
1	1770	6513
1	1798	6514
1	1813	6515
1	1814	6516
1	1803	6517
1	1777	6518
1	1756	6519
1	1563	6480
1	1554	6481
1	1553	6482
1	1557	6483
1	1574	6484
1	1595	6485
1	1624	6486
1	1644	6487
1	1655	6488
1	1670	6489
1	1688	6490
1	1701	6491
1	1710	6492
1	1712	6493
1	1703	6494
1	1688	6495
1	1665	6496
1	1646	6497
1	1625	6498
1	1616	6499
1	1728	6520
1	1697	6521
1	1661	6522
1	1634	6523
1	1607	6524
1	1589	6525
1	1593	6526
1	1607	6527
1	1623	6528
1	1647	6529
1	1674	6530
1	1695	6531
1	1709	6532
1	1717	6533
1	1718	6534
1	1712	6535
1	1706	6536
1	1695	6537
1	1692	6538
1	1696	6539
1	1695	6540
1	1690	6541
1	1692	6542
1	1690	6543
1	1688	6544
1	1686	6545
1	1679	6546
1	1674	6547
1	1662	6548
1	1656	6549
1	1654	6550
1	1665	6551
1	1682	6552
1	1697	6553
1	1700	6554
1	1692	6555
1	1686	6556
1	1686	6557
1	1687	6558
1	1680	6559
1	1660	6560
1	1647	6561
1	1634	6562
1	1615	6563
1	1610	6564
1	1615	6565
1	1620	6566
1	1620	6567
1	1626	6568
1	1631	6569
1	1636	6570
1	1652	6571
1	1674	6572
1	1695	6573
1	1710	6574
1	1713	6575
1	1712	6576
1	1701	6577
1	1677	6578
1	1657	6579
1	1634	6580
1	1613	6581
1	1592	6582
1	1584	6583
1	1589	6584
1	1595	6585
1	1611	6586
1	1633	6587
1	1649	6588
1	1660	6589
1	1662	6590
1	1662	6591
1	1665	6592
1	1672	6593
1	1688	6594
1	1712	6595
1	1729	6596
1	1742	6597
1	1755	6598
1	1755	6599
1	1742	6600
1	1720	6601
1	1696	6602
1	1672	6603
1	1656	6604
1	1648	6605
1	1655	6606
1	1660	6607
1	1660	6608
1	1670	6609
1	1686	6610
1	1701	6611
1	1716	6612
1	1751	6613
1	1782	6614
1	1808	6615
1	1814	6616
1	1799	6617
1	1778	6618
1	1756	6619
1	1736	6620
1	1709	6621
1	1679	6622
1	1657	6623
1	1635	6624
1	1610	6625
1	1583	6626
1	1563	6627
1	1571	6628
1	1593	6629
1	1620	6630
1	1669	6631
1	1711	6632
1	1755	6633
1	1780	6634
1	1795	6635
1	1799	6636
1	1795	6637
1	1785	6638
1	1764	6639
1	1678	6660
1	1669	6661
1	1657	6662
1	1638	6663
1	1622	6664
1	1616	6665
1	1620	6666
1	1618	6667
1	1611	6668
1	1621	6669
1	1641	6670
1	1660	6671
1	1672	6672
1	1687	6673
1	1693	6674
1	1695	6675
1	1688	6676
1	1683	6677
1	1683	6678
1	1693	6679
1	1734	6640
1	1695	6641
1	1659	6642
1	1625	6643
1	1611	6644
1	1626	6645
1	1652	6646
1	1683	6647
1	1700	6648
1	1713	6649
1	1723	6650
1	1728	6651
1	1738	6652
1	1749	6653
1	1751	6654
1	1747	6655
1	1737	6656
1	1719	6657
1	1707	6658
1	1688	6659
1	1701	6680
1	1701	6681
1	1700	6682
1	1689	6683
1	1688	6684
1	1689	6685
1	1688	6686
1	1676	6687
1	1651	6688
1	1631	6689
1	1634	6690
1	1660	6691
1	1699	6692
1	1747	6693
1	1791	6694
1	1819	6695
1	1820	6696
1	1807	6697
1	1765	6698
1	1723	6699
1	1674	6700
1	1627	6701
1	1593	6702
1	1586	6703
1	1595	6704
1	1623	6705
1	1647	6706
1	1677	6707
1	1712	6708
1	1742	6709
1	1772	6710
1	1800	6711
1	1831	6712
1	1840	6713
1	1835	6714
1	1826	6715
1	1813	6716
1	1790	6717
1	1765	6718
1	1733	6719
1	1689	6720
1	1638	6721
1	1582	6722
1	1544	6723
1	1523	6724
1	1515	6725
1	1526	6726
1	1546	6727
1	1576	6728
1	1625	6729
1	1675	6730
1	1713	6731
1	1746	6732
1	1769	6733
1	1790	6734
1	1791	6735
1	1773	6736
1	1763	6737
1	1742	6738
1	1724	6739
1	1698	6740
1	1662	6741
1	1620	6742
1	1574	6743
1	1537	6744
1	1507	6745
1	1498	6746
1	1503	6747
1	1530	6748
1	1566	6749
1	1608	6750
1	1655	6751
1	1695	6752
1	1734	6753
1	1764	6754
1	1782	6755
1	1795	6756
1	1796	6757
1	1781	6758
1	1760	6759
1	1738	6760
1	1715	6761
1	1686	6762
1	1664	6763
1	1643	6764
1	1629	6765
1	1616	6766
1	1610	6767
1	1611	6768
1	1621	6769
1	1638	6770
1	1659	6771
1	1688	6772
1	1715	6773
1	1749	6774
1	1775	6775
1	1793	6776
1	1809	6777
1	1809	6778
1	1783	6779
1	1751	6780
1	1712	6781
1	1683	6782
1	1664	6783
1	1660	6784
1	1664	6785
1	1674	6786
1	1690	6787
1	1716	6788
1	1751	6789
1	1781	6790
1	1803	6791
1	1813	6792
1	1817	6793
1	1817	6794
1	1826	6795
1	1841	6796
1	1845	6797
1	1843	6798
1	1835	6799
1	1806	6800
1	1773	6801
1	1738	6802
1	1694	6803
1	1660	6804
1	1634	6805
1	1615	6806
1	1593	6807
1	1582	6808
1	1582	6809
1	1600	6810
1	1634	6811
1	1670	6812
1	1698	6813
1	1714	6814
1	1726	6815
1	1730	6816
1	1733	6817
1	1718	6818
1	1710	6819
1	1688	6820
1	1659	6821
1	1631	6822
1	1616	6823
1	1606	6824
1	1593	6825
1	1597	6826
1	1620	6827
1	1644	6828
1	1677	6829
1	1701	6830
1	1721	6831
1	1728	6832
1	1729	6833
1	1728	6834
1	1732	6835
1	1737	6836
1	1738	6837
1	1728	6838
1	1712	6839
1	1693	6840
1	1671	6841
1	1647	6842
1	1607	6843
1	1570	6844
1	1529	6845
1	1500	6846
1	1484	6847
1	1487	6848
1	1512	6849
1	1547	6850
1	1595	6851
1	1651	6852
1	1713	6853
1	1756	6854
1	1782	6855
1	1788	6856
1	1782	6857
1	1770	6858
1	1752	6859
1	1735	6860
1	1710	6861
1	1683	6862
1	1646	6863
1	1618	6864
1	1593	6865
1	1575	6866
1	1567	6867
1	1582	6868
1	1611	6869
1	1644	6870
1	1669	6871
1	1689	6872
1	1701	6873
1	1705	6874
1	1711	6875
1	1712	6876
1	1711	6877
1	1698	6878
1	1679	6879
1	1659	6880
1	1639	6881
1	1629	6882
1	1630	6883
1	1633	6884
1	1647	6885
1	1683	6886
1	1725	6887
1	1782	6888
1	1857	6889
1	1932	6890
1	2002	6891
1	2066	6892
1	2114	6893
1	2150	6894
1	2175	6895
1	2194	6896
1	2210	6897
1	2237	6898
1	2240	6899
1	2233	6900
1	2213	6901
1	2189	6902
1	2163	6903
1	2133	6904
1	2106	6905
1	2086	6906
1	2065	6907
1	2034	6908
1	2013	6909
1	1999	6910
1	1987	6911
1	1974	6912
1	1960	6913
1	1935	6914
1	1913	6915
1	1890	6916
1	1868	6917
1	1858	6918
1	1845	6919
1	1829	6920
1	1803	6921
1	1773	6922
1	1730	6923
1	1689	6924
1	1661	6925
1	1643	6926
1	1634	6927
1	1643	6928
1	1654	6929
1	1661	6930
1	1681	6931
1	1684	6932
1	1698	6933
1	1704	6934
1	1708	6935
1	1703	6936
1	1697	6937
1	1688	6938
1	1664	6939
1	1629	6940
1	1586	6941
1	1551	6942
1	1521	6943
1	1504	6944
1	1503	6945
1	1516	6946
1	1538	6947
1	1561	6948
1	1607	6949
1	1655	6950
1	1698	6951
1	1731	6952
1	1742	6953
1	1746	6954
1	1742	6955
1	1726	6956
1	1701	6957
1	1681	6958
1	1649	6959
1	1615	6960
1	1582	6961
1	1567	6962
1	1569	6963
1	1591	6964
1	1617	6965
1	1639	6966
1	1651	6967
1	1660	6968
1	1681	6969
1	1712	6970
1	1738	6971
1	1760	6972
1	1772	6973
1	1770	6974
1	1764	6975
1	1740	6976
1	1713	6977
1	1690	6978
1	1674	6979
1	1654	6980
1	1634	6981
1	1620	6982
1	1607	6983
1	1600	6984
1	1588	6985
1	1581	6986
1	1581	6987
1	1584	6988
1	1594	6989
1	1621	6990
1	1661	6991
1	1701	6992
1	1741	6993
1	1769	6994
1	1780	6995
1	1785	6996
1	1778	6997
1	1756	6998
1	1730	6999
1	1699	7000
1	1667	7001
1	1644	7002
1	1631	7003
1	1625	7004
1	1631	7005
1	1643	7006
1	1657	7007
1	1675	7008
1	1698	7009
1	1713	7010
1	1721	7011
1	1727	7012
1	1723	7013
1	1724	7014
1	1724	7015
1	1715	7016
1	1704	7017
1	1698	7018
1	1683	7019
1	1660	7020
1	1636	7021
1	1607	7022
1	1574	7023
1	1548	7024
1	1532	7025
1	1535	7026
1	1554	7027
1	1579	7028
1	1616	7029
1	1663	7030
1	1707	7031
1	1746	7032
1	1782	7033
1	1816	7034
1	1830	7035
1	1829	7036
1	1824	7037
1	1796	7038
1	1766	7039
1	1734	7040
1	1695	7041
1	1660	7042
1	1633	7043
1	1611	7044
1	1592	7045
1	1575	7046
1	1561	7047
1	1562	7048
1	1580	7049
1	1612	7050
1	1652	7051
1	1686	7052
1	1710	7053
1	1724	7054
1	1738	7055
1	1750	7056
1	1764	7057
1	1770	7058
1	1769	7059
1	1764	7060
1	1756	7061
1	1746	7062
1	1743	7063
1	1744	7064
1	1738	7065
1	1723	7066
1	1708	7067
1	1701	7068
1	1700	7069
1	1700	7070
1	1704	7071
1	1712	7072
1	1708	7073
1	1698	7074
1	1683	7075
1	1660	7076
1	1643	7077
1	1634	7078
1	1624	7079
1	1616	7100
1	1613	7101
1	1611	7102
1	1607	7103
1	1605	7104
1	1593	7105
1	1579	7106
1	1572	7107
1	1582	7108
1	1607	7109
1	1647	7110
1	1689	7111
1	1730	7112
1	1760	7113
1	1778	7114
1	1782	7115
1	1780	7116
1	1773	7117
1	1756	7118
1	1739	7119
1	1724	7100
1	1706	7101
1	1688	7102
1	1667	7103
1	1650	7104
1	1643	7105
1	1651	7106
1	1672	7107
1	1701	7108
1	1731	7109
1	1766	7110
1	1809	7111
1	1841	7112
1	1856	7113
1	1850	7114
1	1836	7115
1	1818	7116
1	1800	7117
1	1783	7118
1	1769	7119
1	1751	7120
1	1726	7121
1	1703	7122
1	1700	7123
1	1703	7124
1	1700	7125
1	1692	7126
1	1686	7127
1	1685	7128
1	1695	7129
1	1711	7130
1	1728	7131
1	1748	7132
1	1760	7133
1	1761	7134
1	1753	7135
1	1740	7136
1	1724	7137
1	1701	7138
1	1675	7139
1	1647	7140
1	1616	7141
1	1593	7142
1	1557	7143
1	1530	7144
1	1510	7145
1	1507	7146
1	1517	7147
1	1530	7148
1	1557	7149
1	1591	7150
1	1631	7151
1	1670	7152
1	1718	7153
1	1755	7154
1	1780	7155
1	1791	7156
1	1795	7157
1	1791	7158
1	1782	7159
1	1765	7160
1	1740	7161
1	1717	7162
1	1688	7163
1	1671	7164
1	1665	7165
1	1667	7166
1	1669	7167
1	1680	7168
1	1681	7169
1	1672	7170
1	1660	7171
1	1642	7172
1	1629	7173
1	1618	7174
1	1622	7175
1	1638	7176
1	1655	7177
1	1660	7178
1	1654	7179
1	1636	7180
1	1616	7181
1	1603	7182
1	1607	7183
1	1616	7184
1	1631	7185
1	1646	7186
1	1663	7187
1	1683	7188
1	1711	7189
1	1746	7190
1	1779	7191
1	1814	7192
1	1827	7193
1	1835	7194
1	1823	7195
1	1778	7196
1	1729	7197
1	1691	7198
1	1661	7199
1	1648	7200
1	1646	7201
1	1646	7202
1	1648	7203
1	1660	7204
1	1657	7205
1	1655	7206
1	1659	7207
1	1662	7208
1	1678	7209
1	1694	7210
1	1703	7211
1	1710	7212
1	1713	7213
1	1711	7214
1	1707	7215
1	1702	7216
1	1697	7217
1	1686	7218
1	1661	7219
1	1647	7260
1	1637	7261
1	1625	7262
1	1607	7263
1	1597	7264
1	1607	7265
1	1625	7266
1	1644	7267
1	1660	7268
1	1688	7269
1	1729	7270
1	1773	7271
1	1817	7272
1	1839	7273
1	1833	7274
1	1814	7275
1	1785	7276
1	1762	7277
1	1733	7278
1	1698	7279
1	1631	7220
1	1598	7221
1	1581	7222
1	1574	7223
1	1583	7224
1	1594	7225
1	1608	7226
1	1620	7227
1	1634	7228
1	1649	7229
1	1660	7230
1	1686	7231
1	1705	7232
1	1714	7233
1	1723	7234
1	1717	7235
1	1708	7236
1	1683	7237
1	1651	7238
1	1626	7239
1	1605	7240
1	1590	7241
1	1577	7242
1	1562	7243
1	1557	7244
1	1557	7245
1	1557	7246
1	1568	7247
1	1581	7248
1	1607	7249
1	1629	7250
1	1649	7251
1	1675	7252
1	1697	7253
1	1709	7254
1	1707	7255
1	1691	7256
1	1678	7257
1	1670	7258
1	1659	7259
1	1665	7280
1	1637	7281
1	1607	7282
1	1581	7283
1	1570	7284
1	1567	7285
1	1570	7286
1	1580	7287
1	1603	7288
1	1629	7289
1	1661	7290
1	1703	7291
1	1752	7292
1	1812	7293
1	1856	7294
1	1882	7295
1	1875	7296
1	1851	7297
1	1817	7298
1	1770	7299
1	1728	7300
1	1688	7301
1	1660	7302
1	1643	7303
1	1621	7304
1	1599	7305
1	1584	7306
1	1582	7307
1	1594	7308
1	1626	7309
1	1662	7310
1	1700	7311
1	1719	7312
1	1723	7313
1	1725	7314
1	1728	7315
1	1733	7316
1	1741	7317
1	1764	7318
1	1764	7319
1	1740	7320
1	1711	7321
1	1684	7322
1	1652	7323
1	1621	7324
1	1595	7325
1	1578	7326
1	1568	7327
1	1564	7328
1	1575	7329
1	1601	7330
1	1634	7331
1	1665	7332
1	1690	7333
1	1705	7334
1	1700	7335
1	1695	7336
1	1683	7337
1	1670	7338
1	1656	7339
1	1646	7340
1	1634	7341
1	1625	7342
1	1607	7343
1	1607	7344
1	1625	7345
1	1653	7346
1	1684	7347
1	1708	7348
1	1718	7349
1	1729	7350
1	1740	7351
1	1757	7352
1	1773	7353
1	1779	7354
1	1782	7355
1	1789	7356
1	1791	7357
1	1786	7358
1	1775	7359
1	1760	7360
1	1738	7361
1	1709	7362
1	1683	7363
1	1656	7364
1	1634	7365
1	1611	7366
1	1599	7367
1	1596	7368
1	1607	7369
1	1629	7370
1	1658	7371
1	1686	7372
1	1701	7373
1	1710	7374
1	1712	7375
1	1712	7376
1	1703	7377
1	1687	7378
1	1663	7379
1	1607	7400
1	1582	7401
1	1568	7402
1	1554	7403
1	1551	7404
1	1557	7405
1	1580	7406
1	1598	7407
1	1619	7408
1	1645	7409
1	1679	7410
1	1703	7411
1	1728	7412
1	1740	7413
1	1729	7414
1	1721	7415
1	1718	7416
1	1721	7417
1	1717	7418
1	1713	7419
1	1642	7380
1	1617	7381
1	1596	7382
1	1587	7383
1	1594	7384
1	1611	7385
1	1647	7386
1	1673	7387
1	1686	7388
1	1695	7389
1	1698	7390
1	1709	7391
1	1718	7392
1	1738	7393
1	1751	7394
1	1751	7395
1	1738	7396
1	1718	7397
1	1688	7398
1	1646	7399
1	1715	7420
1	1710	7421
1	1697	7422
1	1679	7423
1	1657	7424
1	1634	7425
1	1614	7426
1	1607	7427
1	1608	7428
1	1613	7429
1	1622	7430
1	1643	7431
1	1669	7432
1	1688	7433
1	1694	7434
1	1686	7435
1	1679	7436
1	1661	7437
1	1660	7438
1	1654	7439
1	1660	7440
1	1665	7441
1	1678	7442
1	1688	7443
1	1697	7444
1	1701	7445
1	1713	7446
1	1723	7447
1	1723	7448
1	1721	7449
1	1712	7450
1	1697	7451
1	1679	7452
1	1665	7453
1	1655	7454
1	1644	7455
1	1631	7456
1	1625	7457
1	1632	7458
1	1635	7459
1	1639	7460
1	1634	7461
1	1624	7462
1	1611	7463
1	1611	7464
1	1618	7465
1	1625	7466
1	1634	7467
1	1647	7468
1	1664	7469
1	1679	7470
1	1695	7471
1	1714	7472
1	1734	7473
1	1742	7474
1	1746	7475
1	1739	7476
1	1729	7477
1	1724	7478
1	1723	7479
1	1729	7480
1	1734	7481
1	1737	7482
1	1744	7483
1	1751	7484
1	1755	7485
1	1751	7486
1	1737	7487
1	1721	7488
1	1712	7489
1	1710	7490
1	1715	7491
1	1737	7492
1	1755	7493
1	1778	7494
1	1796	7495
1	1814	7496
1	1809	7497
1	1800	7498
1	1785	7499
1	1760	7500
1	1736	7501
1	1711	7502
1	1674	7503
1	1645	7504
1	1634	7505
1	1628	7506
1	1629	7507
1	1630	7508
1	1635	7509
1	1652	7510
1	1668	7511
1	1674	7512
1	1681	7513
1	1680	7514
1	1681	7515
1	1693	7516
1	1710	7517
1	1718	7518
1	1716	7519
1	1712	7520
1	1706	7521
1	1697	7522
1	1678	7523
1	1660	7524
1	1652	7525
1	1652	7526
1	1660	7527
1	1669	7528
1	1685	7529
1	1686	7530
1	1690	7531
1	1687	7532
1	1695	7533
1	1690	7534
1	1686	7535
1	1678	7536
1	1672	7537
1	1663	7538
1	1642	7539
1	1629	7560
1	1592	7561
1	1555	7562
1	1529	7563
1	1521	7564
1	1529	7565
1	1540	7566
1	1546	7567
1	1546	7568
1	1553	7569
1	1562	7570
1	1581	7571
1	1610	7572
1	1652	7573
1	1691	7574
1	1717	7575
1	1738	7576
1	1751	7577
1	1762	7578
1	1764	7579
1	1620	7540
1	1590	7541
1	1564	7542
1	1544	7543
1	1539	7544
1	1541	7545
1	1543	7546
1	1564	7547
1	1592	7548
1	1633	7549
1	1676	7550
1	1729	7551
1	1777	7552
1	1803	7553
1	1816	7554
1	1803	7555
1	1781	7556
1	1739	7557
1	1708	7558
1	1667	7559
1	1755	7580
1	1741	7581
1	1708	7582
1	1660	7583
1	1626	7584
1	1594	7585
1	1571	7586
1	1566	7587
1	1576	7588
1	1594	7589
1	1621	7590
1	1646	7591
1	1672	7592
1	1700	7593
1	1731	7594
1	1751	7595
1	1765	7596
1	1790	7597
1	1817	7598
1	1850	7599
1	1885	7600
1	1917	7601
1	1948	7602
1	1987	7603
1	2016	7604
1	2039	7605
1	2051	7606
1	2052	7607
1	2066	7608
1	2094	7609
1	2138	7610
1	2202	7611
1	2263	7612
1	2300	7613
1	2328	7614
1	2341	7615
1	2341	7616
1	2327	7617
1	2301	7618
1	2251	7619
1	2195	7620
1	2131	7621
1	2057	7622
1	1978	7623
1	1896	7624
1	1827	7625
1	1764	7626
1	1723	7627
1	1692	7628
1	1679	7629
1	1686	7630
1	1703	7631
1	1713	7632
1	1721	7633
1	1720	7634
1	1717	7635
1	1715	7636
1	1714	7637
1	1710	7638
1	1695	7639
1	1634	7680
1	1593	7681
1	1563	7682
1	1546	7683
1	1544	7684
1	1544	7685
1	1540	7686
1	1533	7687
1	1520	7688
1	1512	7689
1	1511	7690
1	1521	7691
1	1548	7692
1	1602	7693
1	1650	7694
1	1695	7695
1	1729	7696
1	1754	7697
1	1769	7698
1	1769	7699
1	1680	7660
1	1660	7661
1	1639	7662
1	1625	7663
1	1624	7664
1	1630	7665
1	1644	7666
1	1652	7667
1	1660	7668
1	1661	7669
1	1673	7670
1	1691	7671
1	1712	7672
1	1738	7673
1	1754	7674
1	1762	7675
1	1756	7676
1	1741	7677
1	1711	7678
1	1675	7679
1	1644	7680
1	1625	7681
1	1618	7682
1	1612	7683
1	1598	7684
1	1587	7685
1	1581	7686
1	1582	7687
1	1594	7688
1	1622	7689
1	1660	7690
1	1709	7691
1	1751	7692
1	1780	7693
1	1796	7694
1	1796	7695
1	1783	7696
1	1759	7697
1	1728	7698
1	1684	7699
1	1751	7700
1	1717	7701
1	1680	7702
1	1644	7703
1	1623	7704
1	1610	7705
1	1613	7706
1	1621	7707
1	1634	7708
1	1644	7709
1	1656	7710
1	1674	7711
1	1696	7712
1	1714	7713
1	1731	7714
1	1733	7715
1	1733	7716
1	1721	7717
1	1714	7718
1	1707	7719
1	1694	7720
1	1664	7721
1	1634	7722
1	1606	7723
1	1580	7724
1	1561	7725
1	1563	7726
1	1580	7727
1	1606	7728
1	1647	7729
1	1682	7730
1	1710	7731
1	1736	7732
1	1754	7733
1	1760	7734
1	1752	7735
1	1731	7736
1	1712	7737
1	1692	7738
1	1679	7739
1	1661	7740
1	1642	7741
1	1625	7742
1	1613	7743
1	1611	7744
1	1616	7745
1	1629	7746
1	1639	7747
1	1647	7748
1	1654	7749
1	1660	7750
1	1672	7751
1	1683	7752
1	1697	7753
1	1698	7754
1	1688	7755
1	1667	7756
1	1652	7757
1	1649	7758
1	1647	7759
1	1649	7760
1	1647	7761
1	1644	7762
1	1634	7763
1	1634	7764
1	1634	7765
1	1627	7766
1	1618	7767
1	1625	7768
1	1642	7769
1	1665	7770
1	1696	7771
1	1719	7772
1	1733	7773
1	1733	7774
1	1712	7775
1	1686	7776
1	1660	7777
1	1634	7778
1	1619	7779
1	1607	7780
1	1595	7781
1	1592	7782
1	1595	7783
1	1605	7784
1	1621	7785
1	1646	7786
1	1665	7787
1	1681	7788
1	1688	7789
1	1691	7790
1	1699	7791
1	1708	7792
1	1713	7793
1	1735	7794
1	1751	7795
1	1766	7796
1	1775	7797
1	1770	7798
1	1747	7799
1	1719	7800
1	1686	7801
1	1656	7802
1	1631	7803
1	1618	7804
1	1621	7805
1	1633	7806
1	1638	7807
1	1642	7808
1	1649	7809
1	1661	7810
1	1677	7811
1	1693	7812
1	1714	7813
1	1730	7814
1	1738	7815
1	1747	7816
1	1747	7817
1	1743	7818
1	1731	7819
1	1712	7820
1	1699	7821
1	1688	7822
1	1669	7823
1	1652	7824
1	1629	7825
1	1598	7826
1	1575	7827
1	1569	7828
1	1580	7829
1	1589	7830
1	1625	7831
1	1660	7832
1	1708	7833
1	1735	7834
1	1751	7835
1	1759	7836
1	1756	7837
1	1760	7838
1	1762	7839
1	1757	7840
1	1746	7841
1	1719	7842
1	1697	7843
1	1683	7844
1	1678	7845
1	1682	7846
1	1685	7847
1	1674	7848
1	1670	7849
1	1686	7850
1	1705	7851
1	1721	7852
1	1712	7853
1	1698	7854
1	1686	7855
1	1674	7856
1	1660	7857
1	1652	7858
1	1634	7859
1	1616	7860
1	1600	7861
1	1590	7862
1	1587	7863
1	1590	7864
1	1595	7865
1	1602	7866
1	1603	7867
1	1594	7868
1	1589	7869
1	1590	7870
1	1598	7871
1	1608	7872
1	1632	7873
1	1645	7874
1	1657	7875
1	1669	7876
1	1681	7877
1	1688	7878
1	1690	7879
1	1641	7900
1	1629	7901
1	1616	7902
1	1618	7903
1	1625	7904
1	1634	7905
1	1644	7906
1	1647	7907
1	1652	7908
1	1668	7909
1	1693	7910
1	1715	7911
1	1722	7912
1	1700	7913
1	1682	7914
1	1655	7915
1	1631	7916
1	1609	7917
1	1615	7918
1	1620	7919
1	1685	7880
1	1670	7881
1	1664	7882
1	1652	7883
1	1638	7884
1	1630	7885
1	1629	7886
1	1625	7887
1	1618	7888
1	1607	7889
1	1605	7890
1	1613	7891
1	1634	7892
1	1660	7893
1	1682	7894
1	1695	7895
1	1695	7896
1	1686	7897
1	1667	7898
1	1654	7899
1	1632	7920
1	1634	7921
1	1632	7922
1	1628	7923
1	1629	7924
1	1625	7925
1	1613	7926
1	1604	7927
1	1605	7928
1	1625	7929
1	1660	7930
1	1694	7931
1	1716	7932
1	1729	7933
1	1733	7934
1	1733	7935
1	1720	7936
1	1707	7937
1	1677	7938
1	1634	7939
1	1602	7940
1	1580	7941
1	1559	7942
1	1543	7943
1	1535	7944
1	1530	7945
1	1531	7946
1	1541	7947
1	1558	7948
1	1581	7949
1	1610	7950
1	1634	7951
1	1654	7952
1	1672	7953
1	1686	7954
1	1687	7955
1	1686	7956
1	1683	7957
1	1672	7958
1	1669	7959
1	1660	7960
1	1635	7961
1	1607	7962
1	1593	7963
1	1579	7964
1	1574	7965
1	1581	7966
1	1593	7967
1	1607	7968
1	1620	7969
1	1631	7970
1	1638	7971
1	1647	7972
1	1649	7973
1	1651	7974
1	1649	7975
1	1647	7976
1	1643	7977
1	1642	7978
1	1629	7979
1	1608	7980
1	1589	7981
1	1569	7982
1	1555	7983
1	1548	7984
1	1553	7985
1	1566	7986
1	1583	7987
1	1593	7988
1	1610	7989
1	1636	7990
1	1665	7991
1	1688	7992
1	1705	7993
1	1706	7994
1	1706	7995
1	1699	7996
1	1687	7997
1	1679	7998
1	1674	7999
1	1665	8000
1	1652	8000
1	1634	8002
1	1611	8003
1	1605	8004
1	1600	8005
1	1603	8006
1	1607	8007
1	1616	8008
1	1634	8009
1	1660	8010
1	1680	8011
1	1697	8012
1	1708	8013
1	1707	8013
1	1701	8015
1	1698	8016
1	1691	8016
1	1677	8018
1	1660	8019
1	1644	8020
1	1629	8021
1	1618	8022
1	1625	8023
1	1639	8024
1	1652	8025
1	1655	8026
1	1655	8027
1	1648	8028
1	1646	8029
1	1646	8029
1	1658	8031
1	1678	8032
1	1697	8032
1	1710	8034
1	1715	8035
1	1720	8036
1	1720	8037
1	1718	8038
1	1700	8039
1	1670	8040
1	1634	8041
1	1607	8042
1	1595	8043
1	1593	8044
1	1593	8045
1	1596	8045
1	1611	8047
1	1639	8048
1	1674	8048
1	1712	8050
1	1742	8051
1	1764	8052
1	1778	8053
1	1773	8054
1	1768	8055
1	1773	8056
1	1775	8057
1	1765	8058
1	1747	8059
1	1717	8060
1	1688	8061
1	1661	8061
1	1635	8063
1	1627	8064
1	1626	8064
1	1628	8066
1	1630	8067
1	1647	8068
1	1662	8069
1	1674	8070
1	1686	8071
1	1699	8072
1	1724	8073
1	1748	8074
1	1756	8074
1	1751	8076
1	1736	8077
1	1715	8077
1	1703	8079
1	1695	8080
1	1686	8080
1	1673	8082
1	1662	8083
1	1654	8084
1	1652	8085
1	1649	8086
1	1643	8087
1	1635	8088
1	1630	8089
1	1626	8090
1	1623	8090
1	1618	8092
1	1610	8093
1	1610	8093
1	1620	8095
1	1635	8096
1	1660	8096
1	1686	8098
1	1701	8099
1	1701	8100
1	1688	8101
1	1677	8102
1	1664	8103
1	1651	8104
1	1634	8105
1	1608	8106
1	1581	8106
1	1554	8108
1	1549	8109
1	1558	8109
1	1599	8111
1	1652	8112
1	1700	8113
1	1726	8114
1	1737	8115
1	1736	8116
1	1723	8117
1	1706	8118
1	1686	8119
1	1661	8120
1	1635	8121
1	1607	8122
1	1578	8122
1	1548	8124
1	1530	8125
1	1529	8125
1	1546	8127
1	1580	8128
1	1613	8129
1	1650	8130
1	1694	8131
1	1754	8132
1	1783	8133
1	1808	8134
1	1815	8135
1	1814	8136
1	1797	8137
1	1784	8138
1	1760	8138
1	1726	8140
1	1686	8141
1	1646	8141
1	1600	8143
1	1560	8144
1	1534	8145
1	1517	8146
1	1513	8147
1	1503	8148
1	1503	8149
1	1521	8150
1	1553	8151
1	1594	8152
1	1634	8153
1	1665	8154
1	1690	8154
1	1699	8156
1	1701	8157
1	1712	8157
1	1706	8159
1	1688	8160
1	1657	8161
1	1618	8162
1	1581	8163
1	1543	8164
1	1526	8165
1	1524	8166
1	1533	8167
1	1548	8168
1	1572	8169
1	1597	8170
1	1625	8170
1	1663	8172
1	1704	8173
1	1728	8173
1	1737	8175
1	1733	8176
1	1715	8177
1	1703	8178
1	1692	8179
1	1685	8180
1	1671	8181
1	1664	8182
1	1654	8183
1	1647	8184
1	1644	8185
1	1643	8186
1	1645	8186
1	1644	8188
1	1634	8189
1	1626	8189
1	1624	8191
1	1634	8192
1	1652	8193
1	1656	8194
1	1649	8195
1	1644	8196
1	1644	8197
1	1635	8198
1	1621	8199
1	1609	8200
1	1607	8201
1	1611	8202
1	1620	8203
1	1631	8204
1	1652	8205
1	1685	8206
1	1718	8207
1	1751	8208
1	1790	8209
1	1827	8210
1	1854	8211
1	1870	8212
1	1877	8213
1	1869	8214
1	1854	8215
1	1825	8216
1	1788	8217
1	1751	8218
1	1712	8219
1	1757	8240
1	1738	8241
1	1715	8242
1	1682	8243
1	1658	8244
1	1643	8245
1	1634	8246
1	1625	8247
1	1634	8248
1	1644	8249
1	1660	8250
1	1670	8251
1	1683	8252
1	1696	8253
1	1703	8254
1	1706	8255
1	1705	8256
1	1701	8257
1	1686	8258
1	1662	8259
1	1680	8240
1	1655	8241
1	1634	8242
1	1620	8243
1	1607	8244
1	1590	8245
1	1576	8246
1	1564	8247
1	1556	8248
1	1566	8249
1	1593	8250
1	1626	8251
1	1667	8252
1	1705	8253
1	1738	8254
1	1764	8255
1	1773	8256
1	1778	8257
1	1773	8258
1	1770	8259
1	1638	8260
1	1608	8261
1	1581	8262
1	1557	8263
1	1539	8264
1	1537	8265
1	1542	8266
1	1556	8267
1	1583	8268
1	1617	8269
1	1656	8270
1	1690	8271
1	1716	8272
1	1731	8273
1	1742	8274
1	1739	8275
1	1738	8276
1	1727	8277
1	1719	8278
1	1701	8279
1	1680	8300
1	1652	8301
1	1625	8302
1	1595	8303
1	1563	8304
1	1536	8305
1	1520	8306
1	1508	8307
1	1503	8308
1	1519	8309
1	1542	8310
1	1577	8311
1	1610	8312
1	1655	8313
1	1695	8314
1	1729	8315
1	1755	8316
1	1778	8317
1	1791	8318
1	1800	8319
1	1791	8300
1	1763	8301
1	1723	8302
1	1685	8303
1	1665	8304
1	1659	8305
1	1654	8306
1	1644	8307
1	1642	8308
1	1634	8309
1	1631	8310
1	1639	8311
1	1652	8312
1	1660	8313
1	1651	8314
1	1636	8315
1	1625	8316
1	1618	8317
1	1602	8318
1	1586	8319
1	1791	8340
1	1796	8341
1	1814	8342
1	1827	8343
1	1856	8344
1	1899	8345
1	1949	8346
1	2000	8347
1	2045	8348
1	2093	8349
1	2144	8350
1	2199	8351
1	2265	8352
1	2329	8353
1	2380	8354
1	2417	8355
1	2428	8356
1	2417	8357
1	2391	8358
1	2357	8359
1	1568	8320
1	1553	8321
1	1543	8322
1	1543	8323
1	1541	8324
1	1539	8325
1	1538	8326
1	1537	8327
1	1532	8328
1	1543	8329
1	1565	8330
1	1595	8331
1	1630	8332
1	1662	8333
1	1691	8334
1	1708	8335
1	1718	8336
1	1733	8337
1	1751	8338
1	1769	8339
1	2306	8360
1	2236	8361
1	2155	8362
1	2074	8363
1	2006	8364
1	1952	8365
1	1908	8366
1	1869	8367
1	1843	8368
1	1814	8369
1	1786	8370
1	1764	8371
1	1755	8372
1	1746	8373
1	1742	8374
1	1746	8375
1	1749	8376
1	1746	8377
1	1728	8378
1	1700	8379
1	1664	8380
1	1625	8381
1	1584	8382
1	1552	8383
1	1518	8384
1	1500	8385
1	1501	8386
1	1514	8387
1	1537	8388
1	1567	8389
1	1594	8390
1	1629	8391
1	1665	8392
1	1700	8393
1	1721	8394
1	1726	8395
1	1726	8396
1	1713	8397
1	1699	8398
1	1682	8399
1	1661	8400
1	1642	8401
1	1618	8402
1	1599	8403
1	1584	8404
1	1581	8405
1	1589	8406
1	1609	8407
1	1623	8408
1	1635	8409
1	1647	8410
1	1655	8411
1	1664	8412
1	1686	8413
1	1708	8414
1	1729	8415
1	1739	8416
1	1739	8417
1	1741	8418
1	1734	8419
1	1717	8420
1	1705	8421
1	1690	8422
1	1671	8423
1	1659	8424
1	1651	8425
1	1647	8426
1	1647	8427
1	1656	8428
1	1661	8429
1	1665	8430
1	1685	8431
1	1699	8432
1	1707	8433
1	1715	8434
1	1711	8435
1	1697	8436
1	1674	8437
1	1641	8438
1	1608	8439
1	1589	8440
1	1584	8441
1	1592	8442
1	1599	8443
1	1607	8444
1	1611	8445
1	1608	8446
1	1620	8447
1	1625	8448
1	1634	8449
1	1649	8450
1	1661	8451
1	1686	8452
1	1712	8453
1	1741	8454
1	1765	8455
1	1779	8456
1	1780	8457
1	1773	8458
1	1747	8459
1	1718	8460
1	1694	8461
1	1670	8462
1	1647	8463
1	1626	8464
1	1607	8465
1	1592	8466
1	1581	8467
1	1567	8468
1	1560	8469
1	1566	8470
1	1579	8471
1	1595	8472
1	1629	8473
1	1650	8474
1	1667	8475
1	1679	8476
1	1684	8477
1	1674	8478
1	1653	8479
1	1843	8500
1	1832	8501
1	1817	8502
1	1793	8503
1	1755	8504
1	1715	8505
1	1686	8506
1	1661	8507
1	1652	8508
1	1656	8509
1	1670	8510
1	1689	8511
1	1710	8512
1	1712	8513
1	1712	8514
1	1711	8515
1	1708	8516
1	1707	8517
1	1707	8518
1	1701	8519
1	1628	8480
1	1602	8481
1	1581	8482
1	1562	8483
1	1555	8484
1	1557	8485
1	1579	8486
1	1610	8487
1	1656	8488
1	1686	8489
1	1716	8490
1	1747	8491
1	1786	8492
1	1817	8493
1	1838	8494
1	1854	8495
1	1863	8496
1	1862	8497
1	1855	8498
1	1851	8499
1	1699	8520
1	1697	8521
1	1688	8522
1	1678	8523
1	1671	8524
1	1659	8525
1	1647	8526
1	1638	8527
1	1631	8528
1	1634	8529
1	1646	8530
1	1662	8531
1	1687	8532
1	1706	8533
1	1712	8534
1	1706	8535
1	1699	8536
1	1699	8537
1	1689	8538
1	1686	8539
1	1688	8540
1	1698	8541
1	1701	8542
1	1692	8543
1	1688	8544
1	1688	8545
1	1686	8546
1	1685	8547
1	1688	8548
1	1687	8549
1	1690	8550
1	1700	8551
1	1712	8552
1	1731	8553
1	1746	8554
1	1751	8555
1	1751	8556
1	1737	8557
1	1703	8558
1	1674	8559
1	1791	8580
1	1773	8581
1	1742	8582
1	1710	8583
1	1684	8584
1	1665	8585
1	1658	8586
1	1659	8587
1	1667	8588
1	1688	8589
1	1710	8590
1	1734	8591
1	1760	8592
1	1777	8593
1	1773	8594
1	1760	8595
1	1739	8596
1	1714	8597
1	1700	8598
1	1688	8599
1	1677	8600
1	1665	8601
1	1660	8602
1	1660	8603
1	1665	8604
1	1670	8605
1	1673	8606
1	1673	8607
1	1675	8608
1	1662	8609
1	1660	8610
1	1660	8611
1	1670	8612
1	1679	8613
1	1686	8614
1	1691	8615
1	1695	8616
1	1690	8617
1	1669	8618
1	1646	8619
1	1652	8580
1	1647	8581
1	1657	8582
1	1675	8583
1	1688	8584
1	1703	8585
1	1715	8586
1	1724	8587
1	1724	8588
1	1716	8589
1	1713	8590
1	1712	8591
1	1711	8592
1	1708	8593
1	1712	8594
1	1722	8595
1	1746	8596
1	1773	8597
1	1793	8598
1	1798	8599
1	1617	8620
1	1584	8621
1	1553	8622
1	1538	8623
1	1529	8624
1	1526	8625
1	1533	8626
1	1546	8627
1	1558	8628
1	1580	8629
1	1597	8630
1	1611	8631
1	1636	8632
1	1668	8633
1	1701	8634
1	1734	8635
1	1764	8636
1	1794	8637
1	1818	8638
1	1816	8639
1	1782	8640
1	1739	8641
1	1707	8642
1	1674	8643
1	1646	8644
1	1622	8645
1	1605	8646
1	1584	8647
1	1555	8648
1	1534	8649
1	1524	8650
1	1528	8651
1	1541	8652
1	1571	8653
1	1598	8654
1	1618	8655
1	1636	8656
1	1660	8657
1	1687	8658
1	1711	8659
1	1718	8660
1	1712	8661
1	1688	8662
1	1652	8663
1	1629	8664
1	1618	8665
1	1616	8666
1	1631	8667
1	1661	8668
1	1688	8669
1	1711	8670
1	1722	8671
1	1722	8672
1	1723	8673
1	1725	8674
1	1722	8675
1	1716	8676
1	1712	8677
1	1698	8678
1	1686	8679
1	1668	8680
1	1643	8681
1	1611	8682
1	1593	8683
1	1574	8684
1	1572	8685
1	1581	8686
1	1597	8687
1	1623	8688
1	1649	8689
1	1665	8690
1	1683	8691
1	1687	8692
1	1687	8693
1	1679	8694
1	1670	8695
1	1658	8696
1	1646	8697
1	1643	8698
1	1637	8699
1	1619	8700
1	1598	8701
1	1576	8702
1	1554	8703
1	1534	8704
1	1529	8705
1	1529	8706
1	1533	8707
1	1547	8708
1	1572	8709
1	1599	8710
1	1623	8711
1	1646	8712
1	1679	8713
1	1702	8714
1	1727	8715
1	1746	8716
1	1756	8717
1	1764	8718
1	1767	8719
1	1764	8720
1	1748	8721
1	1715	8722
1	1665	8723
1	1618	8724
1	1571	8725
1	1532	8726
1	1516	8727
1	1503	8728
1	1517	8729
1	1542	8730
1	1590	8731
1	1639	8732
1	1674	8733
1	1705	8734
1	1711	8735
1	1700	8736
1	1686	8737
1	1667	8738
1	1647	8739
1	1624	8740
1	1612	8741
1	1609	8742
1	1607	8743
1	1594	8744
1	1584	8745
1	1575	8746
1	1587	8747
1	1610	8748
1	1643	8749
1	1680	8750
1	1716	8751
1	1755	8752
1	1791	8753
1	1821	8754
1	1843	8755
1	1850	8756
1	1839	8757
1	1818	8758
1	1785	8759
1	1744	8760
1	1704	8761
1	1668	8762
1	1625	8763
1	1581	8764
1	1555	8765
1	1542	8766
1	1535	8767
1	1526	8768
1	1529	8769
1	1546	8770
1	1574	8771
1	1616	8772
1	1670	8773
1	1713	8774
1	1744	8775
1	1754	8776
1	1751	8777
1	1744	8778
1	1742	8779
1	1750	8780
1	1754	8781
1	1751	8782
1	1737	8783
1	1728	8784
1	1715	8785
1	1695	8786
1	1661	8787
1	1638	8788
1	1616	8789
1	1607	8790
1	1606	8791
1	1615	8792
1	1634	8793
1	1659	8794
1	1681	8795
1	1697	8796
1	1701	8797
1	1699	8798
1	1707	8799
1	1723	8800
1	1736	8801
1	1739	8802
1	1738	8803
1	1721	8804
1	1696	8805
1	1675	8806
1	1650	8807
1	1631	8808
1	1625	8809
1	1634	8810
1	1654	8811
1	1675	8812
1	1687	8813
1	1700	8814
1	1712	8815
1	1716	8816
1	1721	8817
1	1723	8818
1	1714	8819
1	1669	8840
1	1647	8841
1	1626	8842
1	1595	8843
1	1568	8844
1	1544	8845
1	1528	8846
1	1521	8847
1	1541	8848
1	1571	8849
1	1611	8850
1	1655	8851
1	1697	8852
1	1734	8853
1	1765	8854
1	1794	8855
1	1817	8856
1	1823	8857
1	1813	8858
1	1798	8859
1	1705	8820
1	1692	8821
1	1679	8822
1	1664	8823
1	1661	8824
1	1665	8825
1	1671	8826
1	1681	8827
1	1683	8828
1	1678	8829
1	1670	8830
1	1661	8831
1	1664	8832
1	1679	8833
1	1699	8834
1	1722	8835
1	1733	8836
1	1733	8837
1	1712	8838
1	1689	8839
1	1711	8880
1	1698	8881
1	1687	8882
1	1679	8883
1	1668	8884
1	1660	8885
1	1660	8886
1	1674	8887
1	1693	8888
1	1724	8889
1	1751	8890
1	1764	8891
1	1780	8892
1	1795	8893
1	1789	8894
1	1764	8895
1	1734	8896
1	1698	8897
1	1678	8898
1	1667	8899
1	1773	8860
1	1746	8861
1	1712	8862
1	1685	8863
1	1652	8864
1	1633	8865
1	1609	8866
1	1589	8867
1	1571	8868
1	1556	8869
1	1555	8870
1	1559	8871
1	1580	8872
1	1607	8873
1	1643	8874
1	1675	8875
1	1699	8876
1	1712	8877
1	1720	8878
1	1719	8879
1	1660	8900
1	1647	8901
1	1638	8902
1	1634	8903
1	1633	8904
1	1634	8905
1	1636	8906
1	1644	8907
1	1661	8908
1	1672	8909
1	1686	8910
1	1701	8911
1	1717	8912
1	1740	8913
1	1764	8914
1	1782	8915
1	1790	8916
1	1790	8917
1	1781	8918
1	1775	8919
1	1753	8920
1	1715	8921
1	1671	8922
1	1639	8923
1	1607	8924
1	1572	8925
1	1540	8926
1	1520	8927
1	1514	8928
1	1521	8929
1	1540	8930
1	1575	8931
1	1618	8932
1	1665	8933
1	1718	8934
1	1769	8935
1	1809	8936
1	1832	8937
1	1843	8938
1	1841	8939
1	1825	8940
1	1798	8941
1	1778	8942
1	1736	8943
1	1704	8944
1	1679	8945
1	1660	8946
1	1647	8947
1	1647	8948
1	1660	8949
1	1686	8950
1	1711	8951
1	1729	8952
1	1751	8953
1	1765	8954
1	1769	8955
1	1764	8956
1	1757	8957
1	1746	8958
1	1729	8959
1	1711	8960
1	1686	8961
1	1657	8962
1	1625	8963
1	1607	8964
1	1595	8965
1	1589	8966
1	1590	8967
1	1608	8968
1	1633	8969
1	1664	8970
1	1708	8971
1	1751	8972
1	1790	8973
1	1818	8974
1	1843	8975
1	1861	8976
1	1872	8977
1	1866	8978
1	1857	8979
1	1847	8980
1	1832	8981
1	1803	8982
1	1785	8983
1	1760	8984
1	1740	8985
1	1719	8986
1	1695	8987
1	1674	8988
1	1647	8989
1	1621	8990
1	1599	8991
1	1585	8992
1	1579	8993
1	1578	8994
1	1581	8995
1	1581	8996
1	1593	8997
1	1611	8998
1	1622	8999
1	1625	9000
1	1620	9001
1	1613	9002
1	1620	9003
1	1631	9004
1	1634	9005
1	1638	9006
1	1645	9007
1	1651	9008
1	1661	9009
1	1683	9010
1	1706	9011
1	1731	9012
1	1752	9013
1	1752	9014
1	1751	9015
1	1747	9016
1	1746	9017
1	1741	9018
1	1739	9019
1	1736	9020
1	1728	9021
1	1722	9022
1	1706	9023
1	1695	9024
1	1684	9025
1	1668	9026
1	1657	9027
1	1634	9028
1	1621	9029
1	1620	9030
1	1618	9031
1	1631	9032
1	1640	9033
1	1654	9034
1	1677	9035
1	1698	9036
1	1717	9037
1	1737	9038
1	1747	9039
1	1629	9060
1	1620	9061
1	1607	9062
1	1607	9063
1	1612	9064
1	1625	9065
1	1634	9066
1	1641	9067
1	1632	9068
1	1625	9069
1	1636	9070
1	1670	9071
1	1714	9072
1	1768	9073
1	1813	9074
1	1841	9075
1	1854	9076
1	1849	9077
1	1841	9078
1	1834	9079
1	1746	9040
1	1728	9041
1	1694	9042
1	1659	9043
1	1632	9044
1	1615	9045
1	1602	9046
1	1602	9047
1	1598	9048
1	1593	9049
1	1592	9050
1	1599	9051
1	1616	9052
1	1634	9053
1	1654	9054
1	1662	9055
1	1659	9056
1	1650	9057
1	1647	9058
1	1638	9059
1	1834	9080
1	1841	9081
1	1854	9082
1	1875	9083
1	1906	9084
1	1936	9085
1	1971	9086
1	2005	9087
1	2048	9088
1	2080	9089
1	2124	9090
1	2176	9091
1	2239	9092
1	2297	9093
1	2341	9094
1	2354	9095
1	2341	9096
1	2314	9097
1	2262	9098
1	2210	9099
1	2155	9100
1	2089	9101
1	2012	9102
1	1932	9103
1	1845	9104
1	1765	9105
1	1708	9106
1	1665	9107
1	1638	9108
1	1626	9109
1	1637	9110
1	1662	9111
1	1701	9112
1	1738	9113
1	1764	9114
1	1775	9115
1	1775	9116
1	1755	9117
1	1733	9118
1	1698	9119
1	1670	9120
1	1652	9121
1	1634	9122
1	1613	9123
1	1600	9124
1	1595	9125
1	1595	9126
1	1595	9127
1	1594	9128
1	1598	9129
1	1607	9130
1	1616	9131
1	1635	9132
1	1659	9133
1	1674	9134
1	1683	9135
1	1685	9136
1	1698	9137
1	1705	9138
1	1708	9139
1	1694	9140
1	1678	9141
1	1659	9142
1	1634	9143
1	1623	9144
1	1605	9145
1	1585	9146
1	1571	9147
1	1568	9148
1	1577	9149
1	1594	9150
1	1616	9151
1	1646	9152
1	1660	9153
1	1670	9154
1	1675	9155
1	1673	9156
1	1670	9157
1	1657	9158
1	1641	9159
1	1625	9160
1	1620	9161
1	1618	9162
1	1634	9163
1	1645	9164
1	1654	9165
1	1660	9166
1	1665	9167
1	1670	9168
1	1674	9169
1	1687	9170
1	1703	9171
1	1711	9172
1	1699	9173
1	1688	9174
1	1676	9175
1	1659	9176
1	1642	9177
1	1634	9178
1	1616	9179
1	1707	9200
1	1677	9201
1	1647	9202
1	1611	9203
1	1592	9204
1	1580	9205
1	1574	9206
1	1569	9207
1	1582	9208
1	1610	9209
1	1656	9210
1	1700	9211
1	1739	9212
1	1762	9213
1	1762	9214
1	1752	9215
1	1746	9216
1	1742	9217
1	1738	9218
1	1738	9219
1	1602	9180
1	1596	9181
1	1598	9182
1	1603	9183
1	1605	9184
1	1609	9185
1	1616	9186
1	1618	9187
1	1626	9188
1	1639	9189
1	1654	9190
1	1661	9191
1	1668	9192
1	1682	9193
1	1701	9194
1	1725	9195
1	1741	9196
1	1756	9197
1	1755	9198
1	1737	9199
1	1751	9240
1	1729	9241
1	1698	9242
1	1665	9243
1	1640	9244
1	1623	9245
1	1625	9246
1	1634	9247
1	1639	9248
1	1639	9249
1	1636	9250
1	1636	9251
1	1641	9252
1	1647	9253
1	1657	9254
1	1665	9255
1	1665	9256
1	1663	9257
1	1664	9258
1	1674	9259
1	1738	9220
1	1738	9221
1	1733	9222
1	1724	9223
1	1690	9224
1	1647	9225
1	1599	9226
1	1559	9227
1	1541	9228
1	1550	9229
1	1569	9230
1	1585	9231
1	1616	9232
1	1652	9233
1	1686	9234
1	1710	9235
1	1733	9236
1	1751	9237
1	1762	9238
1	1762	9239
1	1687	9260
1	1696	9261
1	1692	9262
1	1672	9263
1	1660	9264
1	1647	9265
1	1638	9266
1	1635	9267
1	1655	9268
1	1673	9269
1	1695	9270
1	1713	9271
1	1730	9272
1	1746	9273
1	1764	9274
1	1792	9275
1	1827	9276
1	1845	9277
1	1843	9278
1	1838	9279
1	1817	9280
1	1783	9281
1	1738	9282
1	1697	9283
1	1651	9284
1	1613	9285
1	1586	9286
1	1569	9287
1	1569	9288
1	1572	9289
1	1585	9290
1	1602	9291
1	1620	9292
1	1646	9293
1	1677	9294
1	1700	9295
1	1716	9296
1	1725	9297
1	1740	9298
1	1742	9299
1	1738	9300
1	1728	9301
1	1710	9302
1	1697	9303
1	1690	9304
1	1687	9305
1	1683	9306
1	1688	9307
1	1710	9308
1	1736	9309
1	1756	9310
1	1783	9311
1	1803	9312
1	1833	9313
1	1843	9314
1	1839	9315
1	1818	9316
1	1793	9317
1	1779	9318
1	1769	9319
1	1760	9320
1	1742	9321
1	1726	9322
1	1698	9323
1	1675	9324
1	1659	9325
1	1641	9326
1	1620	9327
1	1607	9328
1	1598	9329
1	1607	9330
1	1631	9331
1	1659	9332
1	1686	9333
1	1705	9334
1	1717	9335
1	1715	9336
1	1705	9337
1	1691	9338
1	1675	9339
1	1656	9340
1	1626	9341
1	1587	9342
1	1552	9343
1	1521	9344
1	1504	9345
1	1503	9346
1	1539	9347
1	1574	9348
1	1610	9349
1	1656	9350
1	1697	9351
1	1728	9352
1	1746	9353
1	1755	9354
1	1757	9355
1	1752	9356
1	1742	9357
1	1745	9358
1	1729	9359
1	1708	9360
1	1677	9361
1	1647	9362
1	1618	9363
1	1593	9364
1	1581	9365
1	1579	9366
1	1589	9367
1	1607	9368
1	1630	9369
1	1654	9370
1	1686	9371
1	1714	9372
1	1753	9373
1	1778	9374
1	1793	9375
1	1801	9376
1	1791	9377
1	1765	9378
1	1736	9379
1	1691	9380
1	1647	9381
1	1598	9382
1	1553	9383
1	1529	9384
1	1513	9385
1	1512	9386
1	1520	9387
1	1544	9388
1	1574	9389
1	1623	9390
1	1661	9391
1	1700	9392
1	1728	9393
1	1741	9394
1	1751	9395
1	1751	9396
1	1747	9397
1	1734	9398
1	1724	9399
1	1706	9400
1	1674	9401
1	1637	9402
1	1621	9403
1	1613	9404
1	1629	9405
1	1652	9406
1	1674	9407
1	1697	9408
1	1710	9409
1	1720	9410
1	1733	9411
1	1739	9412
1	1736	9413
1	1729	9414
1	1719	9415
1	1708	9416
1	1681	9417
1	1659	9418
1	1626	9419
1	1593	9420
1	1557	9421
1	1525	9422
1	1497	9423
1	1476	9424
1	1463	9425
1	1461	9426
1	1476	9427
1	1502	9428
1	1526	9429
1	1557	9430
1	1599	9431
1	1643	9432
1	1682	9433
1	1712	9434
1	1737	9435
1	1753	9436
1	1760	9437
1	1742	9438
1	1704	9439
1	1663	9480
1	1645	9481
1	1626	9482
1	1607	9483
1	1594	9484
1	1584	9485
1	1589	9486
1	1603	9487
1	1621	9488
1	1634	9489
1	1655	9490
1	1673	9491
1	1688	9492
1	1723	9493
1	1739	9494
1	1744	9495
1	1737	9496
1	1727	9497
1	1716	9498
1	1708	9499
1	1643	9460
1	1615	9461
1	1579	9462
1	1555	9463
1	1530	9464
1	1518	9465
1	1515	9466
1	1526	9467
1	1541	9468
1	1555	9469
1	1576	9470
1	1597	9471
1	1620	9472
1	1634	9473
1	1651	9474
1	1662	9475
1	1674	9476
1	1675	9477
1	1690	9478
1	1682	9479
1	1691	9500
1	1665	9501
1	1638	9502
1	1597	9503
1	1577	9504
1	1568	9505
1	1581	9506
1	1592	9507
1	1611	9508
1	1616	9509
1	1626	9510
1	1647	9511
1	1677	9512
1	1705	9513
1	1729	9514
1	1747	9515
1	1759	9516
1	1773	9517
1	1780	9518
1	1783	9519
1	1659	9440
1	1618	9441
1	1587	9442
1	1569	9443
1	1578	9444
1	1593	9445
1	1607	9446
1	1621	9447
1	1649	9448
1	1660	9449
1	1670	9450
1	1686	9451
1	1692	9452
1	1697	9453
1	1699	9454
1	1701	9455
1	1701	9456
1	1697	9457
1	1680	9458
1	1662	9459
1	1767	9520
1	1738	9521
1	1696	9522
1	1672	9523
1	1636	9524
1	1606	9525
1	1583	9526
1	1580	9527
1	1579	9528
1	1587	9529
1	1618	9530
1	1660	9531
1	1698	9532
1	1723	9533
1	1746	9534
1	1769	9535
1	1788	9536
1	1786	9537
1	1775	9538
1	1751	9539
1	1712	9540
1	1674	9541
1	1648	9542
1	1622	9543
1	1603	9544
1	1594	9545
1	1594	9546
1	1597	9547
1	1594	9548
1	1601	9549
1	1617	9550
1	1636	9551
1	1658	9552
1	1688	9553
1	1707	9554
1	1701	9555
1	1693	9556
1	1680	9557
1	1671	9558
1	1660	9559
1	1641	9560
1	1617	9561
1	1598	9562
1	1578	9563
1	1565	9564
1	1554	9565
1	1544	9566
1	1539	9567
1	1557	9568
1	1580	9569
1	1606	9570
1	1634	9571
1	1657	9572
1	1682	9573
1	1708	9574
1	1729	9575
1	1749	9576
1	1770	9577
1	1787	9578
1	1791	9579
1	1791	9580
1	1773	9581
1	1751	9582
1	1744	9583
1	1715	9584
1	1686	9585
1	1671	9586
1	1660	9587
1	1652	9588
1	1638	9589
1	1633	9590
1	1631	9591
1	1634	9592
1	1634	9593
1	1635	9594
1	1634	9595
1	1634	9596
1	1625	9597
1	1632	9598
1	1622	9599
1	1611	9600
1	1608	9601
1	1609	9602
1	1619	9603
1	1628	9604
1	1638	9605
1	1647	9606
1	1655	9607
1	1656	9608
1	1656	9609
1	1656	9610
1	1661	9611
1	1660	9612
1	1677	9613
1	1665	9614
1	1647	9615
1	1639	9616
1	1634	9617
1	1634	9618
1	1639	9619
1	1646	9620
1	1647	9621
1	1647	9622
1	1625	9623
1	1598	9624
1	1569	9625
1	1554	9626
1	1555	9627
1	1572	9628
1	1586	9629
1	1609	9630
1	1644	9631
1	1664	9632
1	1680	9633
1	1689	9634
1	1700	9635
1	1708	9636
1	1724	9637
1	1737	9638
1	1738	9639
1	1716	9640
1	1669	9641
1	1614	9642
1	1576	9643
1	1534	9644
1	1507	9645
1	1505	9646
1	1529	9647
1	1564	9648
1	1611	9649
1	1665	9650
1	1724	9651
1	1790	9652
1	1858	9653
1	1899	9654
1	1926	9655
1	1926	9656
1	1900	9657
1	1879	9658
1	1841	9659
1	1809	9660
1	1783	9661
1	1753	9662
1	1719	9663
1	1693	9664
1	1674	9665
1	1671	9666
1	1682	9667
1	1692	9668
1	1708	9669
1	1729	9670
1	1751	9671
1	1760	9672
1	1790	9673
1	1791	9674
1	1787	9675
1	1769	9676
1	1742	9677
1	1703	9678
1	1670	9679
1	1655	9680
1	1646	9681
1	1637	9682
1	1626	9683
1	1616	9684
1	1606	9685
1	1589	9686
1	1580	9687
1	1604	9688
1	1618	9689
1	1629	9690
1	1623	9691
1	1631	9692
1	1652	9693
1	1683	9694
1	1708	9695
1	1725	9696
1	1733	9697
1	1727	9698
1	1719	9699
1	1701	9700
1	1677	9701
1	1650	9702
1	1634	9703
1	1603	9704
1	1573	9705
1	1548	9706
1	1533	9707
1	1530	9708
1	1545	9709
1	1567	9710
1	1593	9711
1	1611	9712
1	1628	9713
1	1652	9714
1	1678	9715
1	1692	9716
1	1695	9717
1	1699	9718
1	1670	9719
1	1626	9720
1	1582	9721
1	1548	9722
1	1527	9723
1	1521	9724
1	1530	9725
1	1555	9726
1	1592	9727
1	1632	9728
1	1656	9729
1	1674	9730
1	1681	9731
1	1690	9732
1	1712	9733
1	1738	9734
1	1763	9735
1	1770	9736
1	1765	9737
1	1744	9738
1	1713	9739
1	1686	9740
1	1654	9741
1	1630	9742
1	1610	9743
1	1600	9744
1	1595	9745
1	1596	9746
1	1590	9747
1	1602	9748
1	1611	9749
1	1618	9750
1	1624	9751
1	1630	9752
1	1634	9753
1	1643	9754
1	1648	9755
1	1651	9756
1	1652	9757
1	1635	9758
1	1629	9759
1	1612	9760
1	1598	9761
1	1582	9762
1	1589	9763
1	1587	9764
1	1587	9765
1	1595	9766
1	1616	9767
1	1654	9768
1	1693	9769
1	1744	9770
1	1808	9771
1	1872	9772
1	1935	9773
1	1985	9774
1	2027	9775
1	2064	9776
1	2086	9777
1	2120	9778
1	2135	9779
1	2153	9780
1	2170	9781
1	2185	9782
1	2202	9783
1	2215	9784
1	2228	9785
1	2218	9786
1	2192	9787
1	2167	9788
1	2152	9789
1	2144	9790
1	2132	9791
1	2106	9792
1	2092	9793
1	2057	9794
1	2025	9795
1	1995	9796
1	1965	9797
1	1931	9798
1	1895	9799
1	1855	9800
1	1813	9801
1	1764	9802
1	1704	9803
1	1663	9804
1	1634	9805
1	1612	9806
1	1595	9807
1	1598	9808
1	1589	9809
1	1581	9810
1	1580	9811
1	1580	9812
1	1582	9813
1	1584	9814
1	1584	9815
1	1587	9816
1	1598	9817
1	1616	9818
1	1638	9819
1	1660	9820
1	1662	9821
1	1654	9822
1	1661	9823
1	1660	9824
1	1652	9825
1	1644	9826
1	1636	9827
1	1634	9828
1	1634	9829
1	1641	9830
1	1654	9831
1	1674	9832
1	1693	9833
1	1705	9834
1	1710	9835
1	1712	9836
1	1702	9837
1	1708	9838
1	1701	9839
1	1691	9840
1	1671	9841
1	1642	9842
1	1598	9843
1	1555	9844
1	1526	9845
1	1503	9846
1	1499	9847
1	1507	9848
1	1529	9849
1	1569	9850
1	1615	9851
1	1651	9852
1	1700	9853
1	1723	9854
1	1737	9855
1	1743	9856
1	1742	9857
1	1742	9858
1	1738	9859
1	1720	9860
1	1691	9861
1	1660	9862
1	1626	9863
1	1608	9864
1	1607	9865
1	1610	9866
1	1611	9867
1	1635	9868
1	1656	9869
1	1680	9870
1	1700	9871
1	1712	9872
1	1711	9873
1	1700	9874
1	1684	9875
1	1661	9876
1	1653	9877
1	1652	9878
1	1661	9879
1	1667	9880
1	1669	9881
1	1652	9882
1	1639	9883
1	1615	9884
1	1590	9885
1	1580	9886
1	1575	9887
1	1589	9888
1	1600	9889
1	1605	9890
1	1604	9891
1	1594	9892
1	1584	9893
1	1585	9894
1	1595	9895
1	1611	9896
1	1625	9897
1	1647	9898
1	1658	9899
1	1660	9900
1	1660	9901
1	1660	9902
1	1647	9903
1	1634	9904
1	1620	9905
1	1607	9906
1	1595	9907
1	1595	9908
1	1607	9909
1	1629	9910
1	1644	9911
1	1656	9912
1	1680	9913
1	1690	9914
1	1709	9915
1	1729	9916
1	1743	9917
1	1750	9918
1	1746	9919
1	1734	9920
1	1712	9921
1	1692	9922
1	1652	9923
1	1622	9924
1	1598	9925
1	1581	9926
1	1571	9927
1	1574	9928
1	1579	9929
1	1587	9930
1	1609	9931
1	1636	9932
1	1662	9933
1	1686	9934
1	1714	9935
1	1738	9936
1	1756	9937
1	1755	9938
1	1738	9939
1	1713	9940
1	1685	9941
1	1654	9942
1	1634	9943
1	1607	9944
1	1580	9945
1	1560	9946
1	1561	9947
1	1567	9948
1	1580	9949
1	1602	9950
1	1645	9951
1	1698	9952
1	1764	9953
1	1809	9954
1	1843	9955
1	1862	9956
1	1859	9957
1	1843	9958
1	1813	9959
1	1765	9960
1	1720	9961
1	1674	9962
1	1634	9963
1	1606	9964
1	1585	9965
1	1581	9966
1	1584	9967
1	1597	9968
1	1611	9969
1	1633	9970
1	1655	9971
1	1673	9972
1	1703	9973
1	1725	9974
1	1742	9975
1	1747	9976
1	1742	9977
1	1731	9978
1	1712	9979
1	1694	9980
1	1680	9981
1	1670	9982
1	1647	9983
1	1632	9984
1	1617	9985
1	1603	9986
1	1586	9987
1	1580	9988
1	1581	9989
1	1598	9990
1	1623	9991
1	1660	9992
1	1702	9993
1	1739	9994
1	1761	9995
1	1770	9996
1	1779	9997
1	1787	9998
1	1788	9999
1	1775	10000
1	1753	10001
1	1727	10002
1	1701	10003
1	1669	10004
1	1638	10005
1	1618	10006
1	1606	10007
1	1598	10008
1	1607	10009
1	1626	10010
1	1656	10011
1	1686	10012
1	1712	10013
1	1737	10014
1	1763	10015
1	1783	10016
1	1801	10017
1	1819	10018
1	1820	10019
1	1817	10020
1	1801	10021
1	1782	10022
1	1750	10023
1	1711	10024
1	1671	10025
1	1635	10026
1	1605	10027
1	1589	10028
1	1588	10029
1	1607	10030
1	1634	10031
1	1657	10032
1	1679	10033
1	1692	10034
1	1700	10035
1	1710	10036
1	1724	10037
1	1733	10038
1	1733	10039
1	1724	10040
1	1712	10041
1	1701	10042
1	1675	10043
1	1661	10044
1	1656	10045
1	1655	10046
1	1654	10047
1	1661	10048
1	1675	10049
1	1699	10050
1	1726	10051
1	1751	10052
1	1782	10053
1	1808	10054
1	1819	10055
1	1825	10056
1	1825	10057
1	1792	10058
1	1754	10059
1	1700	10060
1	1647	10061
1	1599	10062
1	1555	10063
1	1503	10064
1	1464	10065
1	1449	10066
1	1450	10067
1	1458	10068
1	1474	10069
1	1503	10070
1	1555	10071
1	1612	10072
1	1668	10073
1	1710	10074
1	1743	10075
1	1772	10076
1	1809	10077
1	1837	10078
1	1836	10079
1	1818	10080
1	1787	10081
1	1742	10082
1	1697	10083
1	1654	10084
1	1607	10085
1	1584	10086
1	1569	10087
1	1566	10088
1	1569	10089
1	1581	10090
1	1603	10091
1	1634	10092
