#Date:= 2024-10-08T15:41:43.647814
#Sampling Rate(Hz):= 1000
#Labels:= LOD	ECG	TS
1	1712	20
1	1751	21
1	1780	22
1	1791	23
1	1787	24
1	1757	25
1	1712	26
1	1659	27
1	1596	28
1	1814	29
1	1789	30
1	1762	31
1	1724	32
1	1678	33
1	1613	34
1	1546	35
1	1482	36
1	1446	37
1	1421	38
1	1419	39
1	1433	40
1	1456	41
1	1495	42
1	1537	43
1	1574	44
1	1611	45
1	1652	46
1	1692	47
1	1728	48
1	1751	49
1	1769	50
1	1785	51
1	1791	52
1	1778	53
1	1759	54
1	1730	55
1	1682	56
1	1608	57
1	1530	58
1	1455	59
1	1398	60
1	1356	61
1	1341	62
1	1351	63
1	1384	64
1	1437	65
1	1485	66
1	1534	67
1	1577	68
1	1618	69
1	1661	70
1	1697	71
1	1728	72
1	1752	73
1	1764	74
1	1764	75
1	1760	76
1	1752	77
1	1746	78
1	1741	79
1	1738	80
1	1739	81
1	1746	82
1	1751	83
1	1773	84
1	1803	85
1	1834	86
1	1864	87
1	1891	88
1	1903	89
1	1890	90
1	1852	91
1	1791	92
1	1728	93
1	1660	94
1	1603	95
1	1553	96
1	1511	97
1	1478	98
1	1471	99
1	1477	100
1	1501	101
1	1534	102
1	1581	103
1	1644	104
1	1710	105
1	1764	106
1	1817	107
1	1855	108
1	1873	109
1	1881	110
1	1873	111
1	1845	112
1	1796	113
1	1751	114
1	1699	115
1	1643	116
1	1592	117
1	1539	118
1	1501	119
1	1476	120
1	1461	121
1	1464	122
1	1481	123
1	1510	124
1	1549	125
1	1599	126
1	1649	127
1	1687	128
1	1729	129
1	1761	130
1	1776	131
1	1780	132
1	1763	133
1	1736	134
1	1692	135
1	1641	136
1	1583	137
1	1529	138
1	1470	139
1	1422	140
1	1398	141
1	1402	142
1	1437	143
1	1497	144
1	1572	145
1	1660	146
1	1741	147
1	1819	148
1	1880	149
1	1920	150
1	1940	151
1	1933	152
1	1906	153
1	1849	154
1	1779	155
1	1712	156
1	1658	157
1	1611	158
1	1576	159
1	1559	160
1	1563	161
1	1585	162
1	1621	163
1	1655	164
1	1692	165
1	1725	166
1	1752	167
1	1780	168
1	1809	169
1	1827	170
1	1832	171
1	1827	172
1	1813	173
1	1790	174
1	1764	175
1	1733	176
1	1695	177
1	1660	178
1	1631	179
1	1610	180
1	1603	181
1	1607	182
1	1616	183
1	1634	184
1	1661	185
1	1705	186
1	1764	187
1	1823	188
1	1871	189
1	1905	190
1	1919	191
1	1921	192
1	1922	193
1	1899	194
1	1864	195
1	1813	196
1	1745	197
1	1682	198
1	1622	199
1	1583	200
1	1560	201
1	1556	202
1	1559	203
1	1581	204
1	1607	205
1	1637	206
1	1670	207
1	1700	208
1	1715	209
1	1724	210
1	1720	211
1	1701	212
1	1664	213
1	1605	214
1	1534	215
1	1464	216
1	1400	217
1	1340	218
1	1309	219
1	1301	220
1	1325	221
1	1374	222
1	1455	223
1	1541	224
1	1629	225
1	1710	226
1	1783	227
1	1852	228
1	1906	229
1	1942	230
1	1955	231
1	1960	232
1	1951	233
1	1930	234
1	1899	235
1	1868	236
1	1831	237
1	1798	238
1	1783	239
1	1782	240
1	1791	241
1	1823	242
1	1852	243
1	1868	244
1	1874	245
1	1872	246
1	1870	247
1	1852	248
1	1823	249
1	1775	250
1	1729	251
1	1681	252
1	1641	253
1	1626	254
1	1608	255
1	1603	256
1	1608	257
1	1636	258
1	1686	259
1	1739	260
1	1791	261
1	1837	262
1	1863	263
1	1900	264
1	1944	265
1	1991	266
1	2031	267
1	2060	268
1	2052	269
1	2013	270
1	1965	271
1	1904	272
1	1828	273
1	1742	274
1	1661	275
1	1593	276
1	1536	277
1	1488	278
1	1456	279
1	1443	280
1	1437	281
1	1450	282
1	1490	283
1	1531	284
1	1580	285
1	1632	286
1	1685	287
1	1736	288
1	1770	289
1	1796	290
1	1816	291
1	1809	292
1	1772	293
1	1731	294
1	1685	295
1	1636	296
1	1594	297
1	1556	298
1	1523	299
1	1503	300
1	1507	301
1	1539	302
1	1594	303
1	1652	304
1	1719	305
1	1792	306
1	1870	307
1	1928	308
1	1971	309
1	1985	310
1	1969	311
1	1926	312
1	1872	313
1	1813	314
1	1746	315
1	1689	316
1	1651	317
1	1631	318
1	1621	319
1	1624	320
1	1631	321
1	1639	322
1	1651	323
1	1670	324
1	1698	325
1	1737	326
1	1775	327
1	1819	328
1	1843	329
1	1852	330
1	1852	331
1	1834	332
1	1822	333
1	1790	334
1	1737	335
1	1680	336
1	1634	337
1	1605	338
1	1587	339
1	1582	340
1	1584	341
1	1607	342
1	1637	343
1	1673	344
1	1715	345
1	1757	346
1	1795	347
1	1821	348
1	1843	349
1	1856	350
1	1860	351
1	1849	352
1	1817	353
1	1776	354
1	1731	355
1	1683	356
1	1616	357
1	1550	358
1	1490	359
1	1458	360
1	1455	361
1	1473	362
1	1500	363
1	1533	364
1	1569	365
1	1603	366
1	1629	367
1	1638	368
1	1651	369
1	1652	370
1	1638	371
1	1612	372
1	1584	373
1	1553	374
1	1538	375
1	1539	376
1	1549	377
1	1570	378
1	1602	379
1	1641	380
1	1679	381
1	1712	382
1	1741	383
1	1765	384
1	1798	385
1	1827	386
1	1846	387
1	1868	388
1	1869	389
1	1856	390
1	1836	391
1	1811	392
1	1778	393
1	1753	394
1	1724	395
1	1703	396
1	1692	397
1	1672	398
1	1658	399
1	1647	400
1	1641	401
1	1650	402
1	1671	403
1	1697	404
1	1729	405
1	1760	406
1	1786	407
1	1816	408
1	1843	409
1	1877	410
1	1899	411
1	1917	412
1	1899	413
1	1867	414
1	1823	415
1	1778	416
1	1742	417
1	1721	418
1	1706	419
1	1708	420
1	1728	421
1	1769	422
1	1845	423
1	1931	424
1	2024	425
1	2111	426
1	2184	427
1	2234	428
1	2271	429
1	2287	430
1	2289	431
1	2279	432
1	2255	433
1	2222	434
1	2192	435
1	2172	436
1	2156	437
1	2139	438
1	2130	439
1	2122	440
1	2120	441
1	2120	442
1	2118	443
1	2124	444
1	2131	445
1	2129	446
1	2115	447
1	2096	448
1	2058	449
1	2001	450
1	1935	451
1	1855	452
1	1769	453
1	1694	454
1	1618	455
1	1559	456
1	1516	457
1	1487	458
1	1478	459
1	1494	460
1	1529	461
1	1579	462
1	1639	463
1	1700	464
1	1763	465
1	1827	466
1	1870	467
1	1917	468
1	1949	469
1	1961	470
1	1952	471
1	1937	472
1	1913	473
1	1887	474
1	1852	475
1	1813	476
1	1780	477
1	1769	478
1	1770	479
1	1793	480
1	1836	481
1	1873	482
1	1906	483
1	1924	484
1	1934	485
1	1922	486
1	1897	487
1	1859	488
1	1817	489
1	1764	490
1	1710	491
1	1659	492
1	1609	493
1	1555	494
1	1507	495
1	1474	496
1	1449	497
1	1437	498
1	1436	499
1	1448	500
1	1466	501
1	1492	502
1	1517	503
1	1555	504
1	1603	505
1	1652	506
1	1698	507
1	1743	508
1	1777	509
1	1800	510
1	1818	511
1	1812	512
1	1787	513
1	1751	514
1	1705	515
1	1658	516
1	1607	517
1	1554	518
1	1515	519
1	1489	520
1	1469	521
1	1466	522
1	1487	523
1	1520	524
1	1563	525
1	1609	526
1	1661	527
1	1718	528
1	1772	529
1	1803	530
1	1817	531
1	1820	532
1	1816	533
1	1799	534
1	1778	535
1	1747	536
1	1725	537
1	1715	538
1	1719	539
1	1726	540
1	1749	541
1	1800	542
1	1868	543
1	1931	544
1	1983	545
1	2021	546
1	2047	547
1	2055	548
1	2058	549
1	2055	550
1	2043	551
1	2012	552
1	1965	553
1	1895	554
1	1813	555
1	1730	556
1	1652	557
1	1590	558
1	1536	559
1	1503	560
1	1492	561
1	1502	562
1	1518	563
1	1541	564
1	1571	565
1	1616	566
1	1679	567
1	1744	568
1	1795	569
1	1831	570
1	1846	571
1	1847	572
1	1836	573
1	1808	574
1	1772	575
1	1741	576
1	1716	577
1	1690	578
1	1674	579
1	1661	580
1	1660	581
1	1664	582
1	1685	583
1	1698	584
1	1726	585
1	1751	586
1	1769	587
1	1791	588
1	1802	589
1	1812	590
1	1814	591
1	1803	592
1	1790	593
1	1778	594
1	1769	595
1	1772	596
1	1773	597
1	1778	598
1	1778	599
1	1777	600
1	1777	601
1	1778	602
1	1788	603
1	1801	604
1	1818	605
1	1831	606
1	1841	607
1	1843	608
1	1849	609
1	1844	610
1	1823	611
1	1793	612
1	1778	613
1	1761	614
1	1749	615
1	1751	616
1	1765	617
1	1796	618
1	1849	619
1	1900	620
1	1947	621
1	1980	622
1	1996	623
1	2002	624
1	2005	625
1	2000	626
1	1999	627
1	2000	628
1	1988	629
1	1971	630
1	1948	631
1	1917	632
1	1877	633
1	1852	634
1	1829	635
1	1800	636
1	1773	637
1	1746	638
1	1737	639
1	1738	640
1	1762	641
1	1800	642
1	1856	643
1	1911	644
1	1969	645
1	2013	646
1	2060	647
1	2094	648
1	2117	649
1	2126	650
1	2120	651
1	2106	652
1	2079	653
1	2044	654
1	2000	655
1	1952	656
1	1904	657
1	1860	658
1	1826	659
1	1616	680
1	1572	681
1	1548	682
1	1542	683
1	1564	684
1	1607	685
1	1656	686
1	1708	687
1	1766	688
1	1817	689
1	1854	690
1	1882	691
1	1904	692
1	1922	693
1	1926	694
1	1926	695
1	1927	696
1	1919	697
1	1886	698
1	1853	699
1	1812	700
1	1763	701
1	1718	702
1	1687	703
1	1669	704
1	1664	705
1	1665	706
1	1681	707
1	1697	708
1	1711	709
1	1726	710
1	1734	711
1	1734	712
1	1710	713
1	1679	714
1	1643	715
1	1607	716
1	1572	717
1	1552	718
1	1539	719
1	1811	660
1	1812	661
1	1821	662
1	1843	663
1	1869	664
1	1906	665
1	1948	666
1	1985	667
1	2006	668
1	2017	669
1	2022	670
1	2012	671
1	1988	672
1	1958	673
1	1908	674
1	1850	675
1	1792	676
1	1746	677
1	1702	678
1	1660	679
1	1535	720
1	1531	721
1	1529	722
1	1544	723
1	1575	724
1	1609	725
1	1654	726
1	1699	727
1	1737	728
1	1769	729
1	1793	730
1	1809	731
1	1802	732
1	1780	733
1	1764	734
1	1737	735
1	1704	736
1	1660	737
1	1611	738
1	1564	739
1	1526	740
1	1490	741
1	1466	742
1	1446	743
1	1440	744
1	1451	745
1	1477	746
1	1525	747
1	1571	748
1	1607	749
1	1613	750
1	1615	751
1	1595	752
1	1568	753
1	1546	754
1	1537	755
1	1529	756
1	1515	757
1	1503	758
1	1500	759
1	1494	760
1	1502	761
1	1513	762
1	1541	763
1	1559	764
1	1586	765
1	1620	766
1	1658	767
1	1690	768
1	1719	769
1	1741	770
1	1747	771
1	1737	772
1	1705	773
1	1668	774
1	1625	775
1	1576	776
1	1521	777
1	1481	778
1	1460	779
1	1463	780
1	1479	781
1	1501	782
1	1523	783
1	1551	784
1	1581	785
1	1616	786
1	1650	787
1	1682	788
1	1712	789
1	1735	790
1	1747	791
1	1742	792
1	1733	793
1	1698	794
1	1649	795
1	1592	796
1	1539	797
1	1503	798
1	1494	799
1	1503	800
1	1517	801
1	1530	802
1	1542	803
1	1566	804
1	1598	805
1	1634	806
1	1685	807
1	1741	808
1	1782	809
1	1801	810
1	1800	811
1	1779	812
1	1751	813
1	1715	814
1	1679	815
1	1634	816
1	1572	817
1	1510	818
1	1463	819
1	1427	820
1	1404	821
1	1400	822
1	1424	823
1	1461	824
1	1513	825
1	1564	826
1	1607	827
1	1644	828
1	1679	829
1	1705	830
1	1713	831
1	1712	832
1	1698	833
1	1672	834
1	1639	835
1	1602	836
1	1557	837
1	1514	838
1	1489	839
1	1478	840
1	1481	841
1	1491	842
1	1498	843
1	1510	844
1	1529	845
1	1546	846
1	1557	847
1	1569	848
1	1584	849
1	1607	850
1	1621	851
1	1634	852
1	1655	853
1	1662	854
1	1659	855
1	1645	856
1	1624	857
1	1598	858
1	1567	859
1	1529	860
1	1499	861
1	1491	862
1	1505	863
1	1535	864
1	1560	865
1	1587	866
1	1613	867
1	1652	868
1	1686	869
1	1710	870
1	1720	871
1	1723	872
1	1711	873
1	1697	874
1	1682	875
1	1665	876
1	1652	877
1	1630	878
1	1607	879
1	1589	880
1	1572	881
1	1564	882
1	1563	883
1	1556	884
1	1551	885
1	1554	886
1	1579	887
1	1618	888
1	1667	889
1	1716	890
1	1755	891
1	1775	892
1	1773	893
1	1764	894
1	1751	895
1	1729	896
1	1693	897
1	1647	898
1	1590	899
1	1542	900
1	1503	901
1	1476	902
1	1466	903
1	1476	904
1	1503	905
1	1541	906
1	1581	907
1	1610	908
1	1634	909
1	1645	910
1	1650	911
1	1652	912
1	1651	913
1	1641	914
1	1634	915
1	1629	916
1	1622	917
1	1619	918
1	1616	919
1	1602	920
1	1571	921
1	1542	922
1	1523	923
1	1520	924
1	1527	925
1	1540	926
1	1564	927
1	1592	928
1	1613	929
1	1629	930
1	1638	931
1	1647	932
1	1639	933
1	1625	934
1	1597	935
1	1554	936
1	1502	937
1	1450	938
1	1417	939
1	1395	940
1	1393	941
1	1413	942
1	1449	943
1	1496	944
1	1548	945
1	1595	946
1	1642	947
1	1688	948
1	1733	949
1	1765	950
1	1782	951
1	1783	952
1	1765	953
1	1742	954
1	1711	955
1	1668	956
1	1615	957
1	1569	958
1	1528	959
1	1502	960
1	1494	961
1	1501	962
1	1516	963
1	1541	964
1	1572	965
1	1607	966
1	1654	967
1	1697	968
1	1746	969
1	1787	970
1	1815	971
1	1817	972
1	1800	973
1	1767	974
1	1733	975
1	1687	976
1	1643	977
1	1598	978
1	1555	979
1	1527	980
1	1511	981
1	1512	982
1	1518	983
1	1530	984
1	1555	985
1	1582	986
1	1609	987
1	1642	988
1	1657	989
1	1660	990
1	1659	991
1	1647	992
1	1626	993
1	1589	994
1	1546	995
1	1505	996
1	1475	997
1	1445	998
1	1423	999
1	1404	1000
1	1407	1001
1	1423	1002
1	1462	1003
1	1512	1004
1	1574	1005
1	1634	1006
1	1692	1007
1	1743	1008
1	1782	1009
1	1800	1010
1	1810	1011
1	1790	1012
1	1741	1013
1	1688	1014
1	1634	1015
1	1589	1016
1	1543	1017
1	1508	1018
1	1478	1019
1	1458	1020
1	1450	1021
1	1458	1022
1	1477	1023
1	1517	1024
1	1563	1025
1	1616	1026
1	1670	1027
1	1712	1028
1	1747	1029
1	1776	1030
1	1792	1031
1	1796	1032
1	1777	1033
1	1756	1034
1	1724	1035
1	1685	1036
1	1642	1037
1	1597	1038
1	1568	1039
1	1561	1060
1	1535	1061
1	1525	1062
1	1522	1063
1	1526	1064
1	1541	1065
1	1570	1066
1	1598	1067
1	1626	1068
1	1660	1069
1	1685	1070
1	1688	1071
1	1680	1072
1	1646	1073
1	1604	1074
1	1555	1075
1	1515	1076
1	1487	1077
1	1481	1078
1	1485	1079
1	1538	1040
1	1512	1041
1	1499	1042
1	1502	1043
1	1524	1044
1	1555	1045
1	1597	1046
1	1637	1047
1	1672	1048
1	1704	1049
1	1724	1050
1	1738	1051
1	1756	1052
1	1764	1053
1	1762	1054
1	1742	1055
1	1714	1056
1	1683	1057
1	1637	1058
1	1596	1059
1	1503	1080
1	1530	1081
1	1565	1082
1	1602	1083
1	1633	1084
1	1656	1085
1	1683	1086
1	1718	1087
1	1760	1088
1	1796	1089
1	1824	1090
1	1829	1091
1	1818	1092
1	1809	1093
1	1786	1094
1	1761	1095
1	1738	1096
1	1710	1097
1	1674	1098
1	1642	1099
1	1615	1100
1	1594	1101
1	1581	1102
1	1573	1103
1	1577	1104
1	1596	1105
1	1634	1106
1	1685	1107
1	1743	1108
1	1792	1109
1	1834	1110
1	1850	1111
1	1856	1112
1	1845	1113
1	1817	1114
1	1776	1115
1	1739	1116
1	1706	1117
1	1669	1118
1	1634	1119
1	1612	1120
1	1598	1121
1	1599	1122
1	1615	1123
1	1636	1124
1	1669	1125
1	1704	1126
1	1736	1127
1	1762	1128
1	1783	1129
1	1791	1130
1	1769	1131
1	1744	1132
1	1718	1133
1	1695	1134
1	1662	1135
1	1636	1136
1	1609	1137
1	1581	1138
1	1560	1139
1	1539	1140
1	1523	1141
1	1517	1142
1	1528	1143
1	1533	1144
1	1550	1145
1	1573	1146
1	1603	1147
1	1634	1148
1	1659	1149
1	1675	1150
1	1675	1151
1	1670	1152
1	1671	1153
1	1658	1154
1	1628	1155
1	1582	1156
1	1538	1157
1	1492	1158
1	1454	1159
1	1428	1160
1	1408	1161
1	1400	1162
1	1398	1163
1	1410	1164
1	1436	1165
1	1476	1166
1	1529	1167
1	1581	1168
1	1630	1169
1	1671	1170
1	1699	1171
1	1715	1172
1	1716	1173
1	1707	1174
1	1681	1175
1	1642	1176
1	1589	1177
1	1536	1178
1	1499	1179
1	1472	1180
1	1454	1181
1	1454	1182
1	1468	1183
1	1489	1184
1	1527	1185
1	1577	1186
1	1634	1187
1	1694	1188
1	1747	1189
1	1793	1190
1	1826	1191
1	1824	1192
1	1790	1193
1	1747	1194
1	1698	1195
1	1644	1196
1	1594	1197
1	1566	1198
1	1546	1199
1	1529	1200
1	1512	1201
1	1503	1202
1	1503	1203
1	1521	1204
1	1555	1205
1	1607	1206
1	1662	1207
1	1710	1208
1	1737	1209
1	1750	1210
1	1756	1211
1	1760	1212
1	1763	1213
1	1743	1214
1	1723	1215
1	1703	1216
1	1682	1217
1	1651	1218
1	1612	1219
1	1581	1220
1	1557	1221
1	1546	1222
1	1544	1223
1	1561	1224
1	1591	1225
1	1618	1226
1	1643	1227
1	1661	1228
1	1664	1229
1	1660	1230
1	1646	1231
1	1607	1232
1	1561	1233
1	1511	1234
1	1458	1235
1	1414	1236
1	1375	1237
1	1354	1238
1	1346	1239
1	1356	1240
1	1382	1241
1	1428	1242
1	1488	1243
1	1559	1244
1	1634	1245
1	1708	1246
1	1787	1247
1	1865	1248
1	1918	1249
1	1953	1250
1	1974	1251
1	1984	1252
1	1974	1253
1	1959	1254
1	1940	1255
1	1914	1256
1	1891	1257
1	1885	1258
1	1886	1259
1	1904	1260
1	1935	1261
1	1980	1262
1	2026	1263
1	2073	1264
1	2114	1265
1	2152	1266
1	2172	1267
1	2183	1268
1	2197	1269
1	2213	1270
1	2233	1271
1	2237	1272
1	2244	1273
1	2237	1274
1	2210	1275
1	2174	1276
1	2138	1277
1	2106	1278
1	2070	1279
1	2022	1280
1	1967	1281
1	1916	1282
1	1871	1283
1	1833	1284
1	1787	1285
1	1749	1286
1	1725	1287
1	1720	1288
1	1712	1289
1	1698	1290
1	1672	1291
1	1634	1292
1	1593	1293
1	1548	1294
1	1500	1295
1	1450	1296
1	1412	1297
1	1384	1298
1	1382	1299
1	1395	1300
1	1413	1301
1	1441	1302
1	1482	1303
1	1523	1304
1	1567	1305
1	1607	1306
1	1645	1307
1	1672	1308
1	1686	1309
1	1695	1310
1	1701	1311
1	1707	1312
1	1699	1313
1	1677	1314
1	1647	1315
1	1607	1316
1	1568	1317
1	1541	1318
1	1525	1319
1	1498	1360
1	1482	1361
1	1500	1362
1	1547	1363
1	1602	1364
1	1672	1365
1	1740	1366
1	1795	1367
1	1843	1368
1	1869	1369
1	1883	1370
1	1878	1371
1	1863	1372
1	1825	1373
1	1776	1374
1	1724	1375
1	1670	1376
1	1625	1377
1	1582	1378
1	1539	1379
1	1502	1340
1	1501	1341
1	1515	1342
1	1543	1343
1	1580	1344
1	1625	1345
1	1673	1346
1	1723	1347
1	1763	1348
1	1791	1349
1	1814	1350
1	1818	1351
1	1809	1352
1	1791	1353
1	1755	1354
1	1720	1355
1	1681	1356
1	1634	1357
1	1581	1358
1	1529	1359
1	1517	1320
1	1521	1321
1	1531	1322
1	1553	1323
1	1577	1324
1	1605	1325
1	1628	1326
1	1654	1327
1	1676	1328
1	1704	1329
1	1726	1330
1	1737	1331
1	1730	1332
1	1716	1333
1	1682	1334
1	1632	1335
1	1589	1336
1	1548	1337
1	1518	1338
1	1503	1339
1	1500	1380
1	1474	1381
1	1471	1382
1	1482	1383
1	1516	1384
1	1556	1385
1	1607	1386
1	1655	1387
1	1694	1388
1	1731	1389
1	1764	1390
1	1789	1391
1	1791	1392
1	1783	1393
1	1751	1394
1	1705	1395
1	1652	1396
1	1602	1397
1	1557	1398
1	1527	1399
1	1503	1400
1	1502	1401
1	1510	1402
1	1535	1403
1	1574	1404
1	1631	1405
1	1689	1406
1	1752	1407
1	1816	1408
1	1856	1409
1	1872	1410
1	1877	1411
1	1865	1412
1	1834	1413
1	1786	1414
1	1740	1415
1	1701	1416
1	1660	1417
1	1610	1418
1	1571	1419
1	1783	1440
1	1754	1441
1	1733	1442
1	1724	1443
1	1720	1444
1	1736	1445
1	1764	1446
1	1802	1447
1	1841	1448
1	1868	1449
1	1888	1450
1	1896	1451
1	1897	1452
1	1890	1453
1	1868	1454
1	1844	1455
1	1831	1456
1	1822	1457
1	1817	1458
1	1801	1459
1	1545	1420
1	1540	1421
1	1555	1422
1	1586	1423
1	1616	1424
1	1641	1425
1	1665	1426
1	1700	1427
1	1738	1428
1	1780	1429
1	1819	1430
1	1855	1431
1	1891	1432
1	1934	1433
1	1967	1434
1	1981	1435
1	1970	1436
1	1929	1437
1	1877	1438
1	1827	1439
1	1720	1480
1	1717	1481
1	1731	1482
1	1754	1483
1	1778	1484
1	1814	1485
1	1849	1486
1	1893	1487
1	1934	1488
1	1966	1489
1	1976	1490
1	1974	1491
1	1957	1492
1	1921	1493
1	1890	1494
1	1856	1495
1	1823	1496
1	1791	1497
1	1780	1498
1	1776	1499
1	1786	1500
1	1791	1501
1	1813	1502
1	1838	1503
1	1862	1504
1	1890	1505
1	1920	1506
1	1942	1507
1	1944	1508
1	1948	1509
1	1950	1510
1	1957	1511
1	1963	1512
1	1962	1513
1	1948	1514
1	1914	1515
1	1869	1516
1	1818	1517
1	1763	1518
1	1710	1519
1	1783	1460
1	1772	1461
1	1765	1462
1	1764	1463
1	1770	1464
1	1788	1465
1	1815	1466
1	1849	1467
1	1896	1468
1	1936	1469
1	1969	1470
1	1996	1471
1	2003	1472
1	2002	1473
1	1981	1474
1	1942	1475
1	1891	1476
1	1838	1477
1	1776	1478
1	1738	1479
1	1660	1520
1	1625	1521
1	1610	1522
1	1616	1523
1	1643	1524
1	1680	1525
1	1714	1526
1	1752	1527
1	1802	1528
1	1850	1529
1	1881	1530
1	1900	1531
1	1908	1532
1	1891	1533
1	1854	1534
1	1791	1535
1	1726	1536
1	1661	1537
1	1603	1538
1	1553	1539
1	1517	1540
1	1503	1541
1	1503	1542
1	1525	1543
1	1559	1544
1	1606	1545
1	1655	1546
1	1692	1547
1	1730	1548
1	1755	1549
1	1777	1550
1	1785	1551
1	1773	1552
1	1743	1553
1	1712	1554
1	1672	1555
1	1633	1556
1	1586	1557
1	1543	1558
1	1490	1559
1	1441	1560
1	1409	1561
1	1390	1562
1	1382	1563
1	1397	1564
1	1425	1565
1	1464	1566
1	1505	1567
1	1552	1568
1	1597	1569
1	1644	1570
1	1674	1571
1	1688	1572
1	1692	1573
1	1683	1574
1	1664	1575
1	1647	1576
1	1638	1577
1	1637	1578
1	1636	1579
1	1634	1580
1	1633	1581
1	1629	1582
1	1618	1583
1	1607	1584
1	1592	1585
1	1583	1586
1	1598	1587
1	1633	1588
1	1661	1589
1	1685	1590
1	1698	1591
1	1700	1592
1	1687	1593
1	1664	1594
1	1634	1595
1	1600	1596
1	1569	1597
1	1537	1598
1	1516	1599
1	1501	1600
1	1492	1601
1	1493	1602
1	1513	1603
1	1537	1604
1	1574	1605
1	1622	1606
1	1669	1607
1	1706	1608
1	1736	1609
1	1762	1610
1	1779	1611
1	1788	1612
1	1768	1613
1	1737	1614
1	1686	1615
1	1637	1616
1	1590	1617
1	1557	1618
1	1531	1619
1	1514	1620
1	1503	1621
1	1503	1622
1	1512	1623
1	1529	1624
1	1553	1625
1	1584	1626
1	1619	1627
1	1643	1628
1	1661	1629
1	1661	1630
1	1651	1631
1	1631	1632
1	1626	1633
1	1629	1634
1	1623	1635
1	1629	1636
1	1620	1637
1	1606	1638
1	1586	1639
1	1573	1640
1	1564	1641
1	1564	1642
1	1572	1643
1	1585	1644
1	1603	1645
1	1623	1646
1	1639	1647
1	1652	1648
1	1656	1649
1	1656	1650
1	1657	1651
1	1652	1652
1	1647	1653
1	1634	1654
1	1621	1655
1	1618	1656
1	1616	1657
1	1616	1658
1	1628	1659
1	1638	1660
1	1647	1661
1	1656	1662
1	1663	1663
1	1671	1664
1	1687	1665
1	1713	1666
1	1744	1667
1	1778	1668
1	1816	1669
1	1838	1670
1	1841	1671
1	1817	1672
1	1764	1673
1	1710	1674
1	1647	1675
1	1580	1676
1	1503	1677
1	1439	1678
1	1376	1679
1	1345	1680
1	1325	1681
1	1335	1682
1	1368	1683
1	1419	1684
1	1476	1685
1	1543	1686
1	1612	1687
1	1685	1688
1	1755	1689
1	1820	1690
1	1857	1691
1	1859	1692
1	1842	1693
1	1792	1694
1	1734	1695
1	1665	1696
1	1598	1697
1	1536	1698
1	1481	1699
1	1440	1700
1	1416	1701
1	1422	1702
1	1440	1703
1	1480	1704
1	1529	1705
1	1582	1706
1	1634	1707
1	1687	1708
1	1721	1709
1	1751	1710
1	1779	1711
1	1801	1712
1	1819	1713
1	1817	1714
1	1802	1715
1	1776	1716
1	1744	1717
1	1707	1718
1	1686	1719
1	1674	1720
1	1662	1721
1	1665	1722
1	1685	1723
1	1697	1724
1	1712	1725
1	1724	1726
1	1733	1727
1	1731	1728
1	1720	1729
1	1702	1730
1	1662	1731
1	1625	1732
1	1578	1733
1	1531	1734
1	1495	1735
1	1474	1736
1	1463	1737
1	1468	1738
1	1481	1739
1	1502	1740
1	1543	1741
1	1596	1742
1	1658	1743
1	1725	1744
1	1796	1745
1	1859	1746
1	1896	1747
1	1908	1748
1	1906	1749
1	1890	1750
1	1848	1751
1	1788	1752
1	1727	1753
1	1658	1754
1	1590	1755
1	1531	1756
1	1481	1757
1	1445	1758
1	1422	1759
1	1607	1780
1	1623	1781
1	1636	1782
1	1659	1783
1	1674	1784
1	1696	1785
1	1723	1786
1	1746	1787
1	1764	1788
1	1793	1789
1	1823	1790
1	1843	1791
1	1855	1792
1	1847	1793
1	1825	1794
1	1783	1795
1	1733	1796
1	1677	1797
1	1634	1798
1	1598	1799
1	1415	1760
1	1421	1761
1	1446	1762
1	1489	1763
1	1542	1764
1	1598	1765
1	1652	1766
1	1694	1767
1	1729	1768
1	1744	1769
1	1752	1770
1	1751	1771
1	1740	1772
1	1728	1773
1	1713	1774
1	1693	1775
1	1672	1776
1	1648	1777
1	1620	1778
1	1604	1779
1	1582	1800
1	1582	1801
1	1587	1802
1	1604	1803
1	1630	1804
1	1662	1805
1	1692	1806
1	1714	1807
1	1733	1808
1	1738	1809
1	1734	1810
1	1719	1811
1	1701	1812
1	1685	1813
1	1657	1814
1	1628	1815
1	1597	1816
1	1574	1817
1	1550	1818
1	1529	1819
1	1517	1820
1	1516	1821
1	1530	1822
1	1555	1823
1	1597	1824
1	1636	1825
1	1670	1826
1	1698	1827
1	1726	1828
1	1739	1829
1	1745	1830
1	1740	1831
1	1730	1832
1	1717	1833
1	1710	1834
1	1690	1835
1	1671	1836
1	1647	1837
1	1625	1838
1	1610	1839
1	1607	1840
1	1607	1841
1	1620	1842
1	1636	1843
1	1656	1844
1	1682	1845
1	1714	1846
1	1747	1847
1	1778	1848
1	1816	1849
1	1843	1850
1	1856	1851
1	1857	1852
1	1843	1853
1	1819	1854
1	1791	1855
1	1766	1856
1	1733	1857
1	1693	1858
1	1647	1859
1	1611	1860
1	1593	1861
1	1585	1862
1	1592	1863
1	1599	1864
1	1611	1865
1	1629	1866
1	1644	1867
1	1665	1868
1	1710	1869
1	1765	1870
1	1827	1871
1	1867	1872
1	1895	1873
1	1899	1874
1	1877	1875
1	1832	1876
1	1767	1877
1	1708	1878
1	1651	1879
1	1608	1880
1	1584	1881
1	1581	1882
1	1582	1883
1	1598	1884
1	1620	1885
1	1639	1886
1	1658	1887
1	1675	1888
1	1683	1889
1	1679	1890
1	1667	1891
1	1665	1892
1	1660	1893
1	1648	1894
1	1634	1895
1	1620	1896
1	1607	1897
1	1595	1898
1	1590	1899
1	1602	1900
1	1634	1901
1	1673	1902
1	1729	1903
1	1787	1904
1	1845	1905
1	1891	1906
1	1925	1907
1	1949	1908
1	1962	1909
1	1966	1910
1	1958	1911
1	1940	1912
1	1908	1913
1	1872	1914
1	1842	1915
1	1798	1916
1	1755	1917
1	1716	1918
1	1685	1919
1	1655	1920
1	1635	1921
1	1634	1922
1	1643	1923
1	1672	1924
1	1710	1925
1	1753	1926
1	1814	1927
1	1859	1928
1	1900	1929
1	1923	1930
1	1922	1931
1	1917	1932
1	1904	1933
1	1869	1934
1	1828	1935
1	1791	1936
1	1760	1937
1	1738	1938
1	1728	1939
1	1670	1960
1	1683	1961
1	1697	1962
1	1722	1963
1	1744	1964
1	1766	1965
1	1792	1966
1	1825	1967
1	1846	1968
1	1858	1969
1	1857	1970
1	1854	1971
1	1838	1972
1	1808	1973
1	1787	1974
1	1778	1975
1	1777	1976
1	1777	1977
1	1787	1978
1	1791	1979
1	1724	1940
1	1724	1941
1	1720	1942
1	1710	1943
1	1701	1944
1	1703	1945
1	1712	1946
1	1720	1947
1	1726	1948
1	1720	1949
1	1712	1950
1	1713	1951
1	1713	1952
1	1715	1953
1	1715	1954
1	1709	1955
1	1695	1956
1	1685	1957
1	1670	1958
1	1665	1959
1	1798	1980
1	1800	1981
1	1815	1982
1	1829	1983
1	1845	1984
1	1859	1985
1	1869	1986
1	1877	1987
1	1871	1988
1	1851	1989
1	1832	1990
1	1816	1991
1	1795	1992
1	1769	1993
1	1721	1994
1	1665	1995
1	1615	1996
1	1580	1997
1	1554	1998
1	1539	1999
1	1537	2000
1	1543	2001
1	1564	2002
1	1598	2003
1	1652	2004
1	1719	2005
1	1791	2006
1	1856	2007
1	1909	2008
1	1932	2009
1	1924	2010
1	1895	2011
1	1836	2012
1	1753	2013
1	1661	2014
1	1566	2015
1	1484	2016
1	1413	2017
1	1359	2018
1	1343	2019
1	1490	2060
1	1471	2061
1	1467	2062
1	1478	2063
1	1512	2064
1	1555	2065
1	1607	2066
1	1670	2067
1	1741	2068
1	1792	2069
1	1832	2070
1	1856	2071
1	1866	2072
1	1860	2073
1	1842	2074
1	1796	2075
1	1746	2076
1	1688	2077
1	1633	2078
1	1590	2079
1	1341	2020
1	1359	2021
1	1406	2022
1	1469	2023
1	1545	2024
1	1638	2025
1	1738	2026
1	1835	2027
1	1908	2028
1	1968	2029
1	2000	2030
1	2006	2031
1	1991	2032
1	1948	2033
1	1895	2034
1	1833	2035
1	1765	2036
1	1711	2037
1	1664	2038
1	1633	2039
1	1618	2040
1	1624	2041
1	1656	2042
1	1692	2043
1	1731	2044
1	1773	2045
1	1817	2046
1	1847	2047
1	1859	2048
1	1868	2049
1	1868	2050
1	1858	2051
1	1844	2052
1	1817	2053
1	1764	2054
1	1711	2055
1	1660	2056
1	1607	2057
1	1561	2058
1	1521	2059
1	1555	2080
1	1529	2081
1	1526	2082
1	1551	2083
1	1587	2084
1	1630	2085
1	1670	2086
1	1713	2087
1	1764	2088
1	1829	2089
1	1884	2090
1	1927	2091
1	1970	2092
1	1994	2093
1	2001	2094
1	1999	2095
1	1989	2096
1	1976	2097
1	1969	2098
1	1960	2099
1	1961	2100
1	1986	2101
1	2025	2102
1	2079	2103
1	2148	2104
1	2230	2105
1	2314	2106
1	2393	2107
1	2449	2108
1	2494	2109
1	2509	2110
1	2516	2111
1	2506	2112
1	2495	2113
1	2467	2114
1	2433	2115
1	2394	2116
1	2353	2117
1	2301	2118
1	2237	2119
1	2162	2120
1	2088	2121
1	2026	2122
1	1985	2123
1	1965	2124
1	1960	2125
1	1962	2126
1	1967	2127
1	1975	2128
1	1976	2129
1	1971	2130
1	1947	2131
1	1900	2132
1	1841	2133
1	1769	2134
1	1698	2135
1	1635	2136
1	1581	2137
1	1541	2138
1	1525	2139
1	1529	2140
1	1548	2141
1	1597	2142
1	1665	2143
1	1743	2144
1	1817	2145
1	1864	2146
1	1896	2147
1	1909	2148
1	1917	2149
1	1916	2150
1	1909	2151
1	1890	2152
1	1847	2153
1	1795	2154
1	1741	2155
1	1686	2156
1	1635	2157
1	1593	2158
1	1550	2159
1	1518	2160
1	1508	2161
1	1516	2162
1	1534	2163
1	1565	2164
1	1605	2165
1	1642	2166
1	1675	2167
1	1698	2168
1	1721	2169
1	1738	2170
1	1751	2171
1	1759	2172
1	1765	2173
1	1760	2174
1	1742	2175
1	1725	2176
1	1708	2177
1	1692	2178
1	1683	2179
1	1674	2180
1	1660	2181
1	1643	2182
1	1625	2183
1	1620	2184
1	1625	2185
1	1634	2186
1	1654	2187
1	1693	2188
1	1740	2189
1	1790	2190
1	1842	2191
1	1873	2192
1	1890	2193
1	1891	2194
1	1875	2195
1	1856	2196
1	1834	2197
1	1800	2198
1	1769	2199
1	1725	2200
1	1682	2201
1	1642	2202
1	1620	2203
1	1611	2204
1	1631	2205
1	1665	2206
1	1716	2207
1	1762	2208
1	1800	2209
1	1842	2210
1	1867	2211
1	1870	2212
1	1859	2213
1	1837	2214
1	1803	2215
1	1772	2216
1	1746	2217
1	1728	2218
1	1699	2219
1	1667	2220
1	1634	2221
1	1620	2222
1	1629	2223
1	1652	2224
1	1695	2225
1	1740	2226
1	1775	2227
1	1790	2228
1	1791	2229
1	1787	2230
1	1764	2231
1	1737	2232
1	1712	2233
1	1680	2234
1	1644	2235
1	1610	2236
1	1567	2237
1	1530	2238
1	1510	2239
1	1512	2240
1	1530	2241
1	1563	2242
1	1603	2243
1	1652	2244
1	1698	2245
1	1747	2246
1	1791	2247
1	1826	2248
1	1842	2249
1	1837	2250
1	1823	2251
1	1791	2252
1	1760	2253
1	1730	2254
1	1710	2255
1	1695	2256
1	1685	2257
1	1664	2258
1	1645	2259
1	1637	2260
1	1647	2261
1	1674	2262
1	1715	2263
1	1755	2264
1	1795	2265
1	1836	2266
1	1870	2267
1	1914	2268
1	1955	2269
1	1984	2270
1	1985	2271
1	1962	2272
1	1922	2273
1	1882	2274
1	1842	2275
1	1791	2276
1	1744	2277
1	1710	2278
1	1686	2279
1	1681	2280
1	1686	2281
1	1702	2282
1	1723	2283
1	1737	2284
1	1747	2285
1	1756	2286
1	1772	2287
1	1791	2288
1	1814	2289
1	1826	2290
1	1830	2291
1	1822	2292
1	1817	2293
1	1811	2294
1	1801	2295
1	1800	2296
1	1814	2297
1	1826	2298
1	1845	2299
1	1869	2300
1	1898	2301
1	1931	2302
1	1952	2303
1	1972	2304
1	1988	2305
1	1999	2306
1	1992	2307
1	1976	2308
1	1945	2309
1	1899	2310
1	1856	2311
1	1816	2312
1	1779	2313
1	1748	2314
1	1717	2315
1	1689	2316
1	1661	2317
1	1636	2318
1	1624	2319
1	1621	2320
1	1631	2321
1	1651	2322
1	1698	2323
1	1760	2324
1	1836	2325
1	1903	2326
1	1962	2327
1	2010	2328
1	2047	2329
1	2066	2330
1	2063	2331
1	2049	2332
1	2014	2333
1	1981	2334
1	1949	2335
1	1921	2336
1	1895	2337
1	1868	2338
1	1843	2339
1	1824	2340
1	1814	2341
1	1819	2342
1	1825	2343
1	1835	2344
1	1856	2345
1	1880	2346
1	1910	2347
1	1930	2348
1	1955	2349
1	1979	2350
1	1994	2351
1	1986	2352
1	1963	2353
1	1917	2354
1	1868	2355
1	1823	2356
1	1780	2357
1	1738	2358
1	1694	2359
1	1660	2360
1	1638	2361
1	1632	2362
1	1625	2363
1	1634	2364
1	1648	2365
1	1665	2366
1	1687	2367
1	1720	2368
1	1747	2369
1	1769	2370
1	1790	2371
1	1798	2372
1	1796	2373
1	1787	2374
1	1754	2375
1	1726	2376
1	1707	2377
1	1691	2378
1	1677	2379
1	1665	2380
1	1658	2381
1	1656	2382
1	1667	2383
1	1683	2384
1	1697	2385
1	1712	2386
1	1727	2387
1	1737	2388
1	1741	2389
1	1737	2390
1	1706	2391
1	1671	2392
1	1636	2393
1	1607	2394
1	1579	2395
1	1549	2396
1	1518	2397
1	1490	2398
1	1472	2399
1	1472	2400
1	1488	2401
1	1505	2402
1	1520	2403
1	1535	2404
1	1563	2405
1	1608	2406
1	1658	2407
1	1685	2408
1	1688	2409
1	1686	2410
1	1671	2411
1	1645	2412
1	1613	2413
1	1576	2414
1	1534	2415
1	1490	2416
1	1442	2417
1	1400	2418
1	1371	2419
1	1358	2420
1	1359	2421
1	1374	2422
1	1394	2423
1	1409	2424
1	1427	2425
1	1452	2426
1	1480	2427
1	1520	2428
1	1560	2429
1	1598	2430
1	1622	2431
1	1647	2432
1	1648	2433
1	1646	2434
1	1634	2435
1	1618	2436
1	1598	2437
1	1570	2438
1	1548	2439
1	1535	2440
1	1530	2441
1	1529	2442
1	1531	2443
1	1539	2444
1	1554	2445
1	1574	2446
1	1605	2447
1	1635	2448
1	1668	2449
1	1690	2450
1	1695	2451
1	1683	2452
1	1652	2453
1	1616	2454
1	1579	2455
1	1544	2456
1	1510	2457
1	1481	2458
1	1450	2459
1	1424	2460
1	1417	2461
1	1428	2462
1	1449	2463
1	1472	2464
1	1494	2465
1	1517	2466
1	1541	2467
1	1560	2468
1	1580	2469
1	1595	2470
1	1616	2471
1	1628	2472
1	1631	2473
1	1616	2474
1	1597	2475
1	1568	2476
1	1529	2477
1	1490	2478
1	1461	2479
1	1436	2480
1	1402	2481
1	1370	2482
1	1351	2483
1	1364	2484
1	1396	2485
1	1427	2486
1	1463	2487
1	1505	2488
1	1547	2489
1	1587	2490
1	1629	2491
1	1661	2492
1	1686	2493
1	1697	2494
1	1685	2495
1	1656	2496
1	1623	2497
1	1593	2498
1	1570	2499
1	1550	2500
1	1526	2501
1	1503	2502
1	1490	2503
1	1481	2504
1	1485	2505
1	1499	2506
1	1513	2507
1	1530	2508
1	1553	2509
1	1580	2510
1	1600	2511
1	1607	2512
1	1603	2513
1	1595	2514
1	1579	2515
1	1550	2516
1	1514	2517
1	1488	2518
1	1461	2519
1	1451	2520
1	1459	2521
1	1475	2522
1	1499	2523
1	1536	2524
1	1581	2525
1	1626	2526
1	1673	2527
1	1715	2528
1	1754	2529
1	1782	2530
1	1800	2531
1	1791	2532
1	1752	2533
1	1692	2534
1	1630	2535
1	1572	2536
1	1492	2537
1	1404	2538
1	1328	2539
1	1260	2540
1	1212	2541
1	1189	2542
1	1202	2543
1	1229	2544
1	1267	2545
1	1310	2546
1	1354	2547
1	1407	2548
1	1442	2549
1	1480	2550
1	1523	2551
1	1558	2552
1	1597	2553
1	1628	2554
1	1639	2555
1	1644	2556
1	1645	2557
1	1639	2558
1	1638	2559
1	1646	2560
1	1656	2561
1	1660	2562
1	1657	2563
1	1638	2564
1	1625	2565
1	1613	2566
1	1609	2567
1	1618	2568
1	1625	2569
1	1625	2570
1	1608	2571
1	1579	2572
1	1532	2573
1	1499	2574
1	1461	2575
1	1428	2576
1	1399	2577
1	1384	2578
1	1384	2579
1	1400	2580
1	1422	2581
1	1448	2582
1	1479	2583
1	1513	2584
1	1550	2585
1	1584	2586
1	1620	2587
1	1643	2588
1	1661	2589
1	1674	2590
1	1670	2591
1	1647	2592
1	1609	2593
1	1557	2594
1	1507	2595
1	1464	2596
1	1433	2597
1	1403	2598
1	1376	2599
1	1358	2600
1	1355	2601
1	1372	2602
1	1415	2603
1	1469	2604
1	1528	2605
1	1571	2606
1	1597	2607
1	1615	2608
1	1617	2609
1	1620	2610
1	1630	2611
1	1634	2612
1	1623	2613
1	1600	2614
1	1572	2615
1	1546	2616
1	1521	2617
1	1501	2618
1	1488	2619
1	1355	2640
1	1323	2641
1	1302	2642
1	1291	2643
1	1296	2644
1	1323	2645
1	1369	2646
1	1435	2647
1	1497	2648
1	1551	2649
1	1594	2650
1	1618	2651
1	1626	2652
1	1625	2653
1	1607	2654
1	1581	2655
1	1543	2656
1	1503	2657
1	1472	2658
1	1445	2659
1	1480	2620
1	1476	2621
1	1481	2622
1	1508	2623
1	1540	2624
1	1579	2625
1	1625	2626
1	1680	2627
1	1738	2628
1	1795	2629
1	1837	2630
1	1841	2631
1	1815	2632
1	1754	2633
1	1688	2634
1	1618	2635
1	1545	2636
1	1487	2637
1	1437	2638
1	1395	2639
1	1404	2700
1	1431	2701
1	1465	2702
1	1503	2703
1	1544	2704
1	1584	2705
1	1623	2706
1	1652	2707
1	1671	2708
1	1684	2709
1	1686	2710
1	1681	2711
1	1672	2712
1	1661	2713
1	1634	2714
1	1602	2715
1	1572	2716
1	1542	2717
1	1503	2718
1	1463	2719
1	1427	2680
1	1449	2681
1	1474	2682
1	1502	2683
1	1524	2684
1	1548	2685
1	1575	2686
1	1602	2687
1	1630	2688
1	1647	2689
1	1662	2690
1	1670	2691
1	1662	2692
1	1635	2693
1	1594	2694
1	1544	2695
1	1495	2696
1	1449	2697
1	1419	2698
1	1398	2699
1	1428	2660
1	1428	2661
1	1435	2662
1	1447	2663
1	1472	2664
1	1503	2665
1	1540	2666
1	1584	2667
1	1633	2668
1	1663	2669
1	1686	2670
1	1685	2671
1	1660	2672
1	1622	2673
1	1572	2674
1	1517	2675
1	1466	2676
1	1428	2677
1	1410	2678
1	1412	2679
1	1435	2720
1	1424	2721
1	1424	2722
1	1431	2723
1	1453	2724
1	1480	2725
1	1512	2726
1	1546	2727
1	1586	2728
1	1620	2729
1	1645	2730
1	1649	2731
1	1643	2732
1	1602	2733
1	1553	2734
1	1492	2735
1	1435	2736
1	1384	2737
1	1351	2738
1	1335	2739
1	1332	2740
1	1340	2741
1	1359	2742
1	1393	2743
1	1435	2744
1	1487	2745
1	1535	2746
1	1596	2747
1	1649	2748
1	1693	2749
1	1721	2750
1	1736	2751
1	1736	2752
1	1712	2753
1	1688	2754
1	1647	2755
1	1605	2756
1	1553	2757
1	1503	2758
1	1464	2759
1	1435	2760
1	1419	2761
1	1420	2762
1	1429	2763
1	1442	2764
1	1467	2765
1	1499	2766
1	1538	2767
1	1567	2768
1	1590	2769
1	1609	2770
1	1625	2771
1	1623	2772
1	1618	2773
1	1598	2774
1	1574	2775
1	1541	2776
1	1514	2777
1	1494	2778
1	1487	2779
1	1480	2780
1	1481	2781
1	1500	2782
1	1527	2783
1	1568	2784
1	1613	2785
1	1655	2786
1	1699	2787
1	1746	2788
1	1788	2789
1	1820	2790
1	1841	2791
1	1836	2792
1	1818	2793
1	1791	2794
1	1757	2795
1	1703	2796
1	1634	2797
1	1550	2798
1	1489	2799
1	1441	2800
1	1413	2801
1	1396	2802
1	1402	2803
1	1424	2804
1	1467	2805
1	1528	2806
1	1597	2807
1	1671	2808
1	1739	2809
1	1791	2810
1	1832	2811
1	1841	2812
1	1819	2813
1	1783	2814
1	1733	2815
1	1668	2816
1	1598	2817
1	1543	2818
1	1490	2819
1	1440	2820
1	1400	2821
1	1374	2822
1	1372	2823
1	1384	2824
1	1424	2825
1	1474	2826
1	1532	2827
1	1580	2828
1	1607	2829
1	1622	2830
1	1621	2831
1	1597	2832
1	1568	2833
1	1521	2834
1	1469	2835
1	1427	2836
1	1384	2837
1	1354	2838
1	1324	2839
1	1302	2840
1	1293	2841
1	1287	2842
1	1292	2843
1	1323	2844
1	1383	2845
1	1466	2846
1	1551	2847
1	1629	2848
1	1692	2849
1	1739	2850
1	1777	2851
1	1787	2852
1	1788	2853
1	1779	2854
1	1760	2855
1	1724	2856
1	1677	2857
1	1619	2858
1	1581	2859
1	1555	2860
1	1542	2861
1	1530	2862
1	1529	2863
1	1516	2864
1	1505	2865
1	1503	2866
1	1505	2867
1	1519	2868
1	1538	2869
1	1561	2870
1	1584	2871
1	1607	2872
1	1625	2873
1	1634	2874
1	1642	2875
1	1634	2876
1	1609	2877
1	1584	2878
1	1547	2879
1	1504	2880
1	1468	2881
1	1447	2882
1	1441	2883
1	1449	2884
1	1472	2885
1	1499	2886
1	1530	2887
1	1555	2888
1	1574	2889
1	1580	2890
1	1580	2891
1	1566	2892
1	1557	2893
1	1532	2894
1	1490	2895
1	1437	2896
1	1382	2897
1	1343	2898
1	1314	2899
1	1299	2900
1	1301	2901
1	1319	2902
1	1337	2903
1	1368	2904
1	1401	2905
1	1436	2906
1	1474	2907
1	1524	2908
1	1566	2909
1	1606	2910
1	1636	2911
1	1654	2912
1	1652	2913
1	1634	2914
1	1607	2915
1	1592	2916
1	1579	2917
1	1554	2918
1	1529	2919
1	1507	2920
1	1492	2921
1	1481	2922
1	1485	2923
1	1484	2924
1	1484	2925
1	1489	2926
1	1494	2927
1	1505	2928
1	1517	2929
1	1516	2930
1	1518	2931
1	1512	2932
1	1495	2933
1	1477	2934
1	1472	2935
1	1474	2936
1	1486	2937
1	1502	2938
1	1523	2939
1	1549	2940
1	1577	2941
1	1615	2942
1	1664	2943
1	1744	2944
1	1832	2945
1	1910	2946
1	1980	2947
1	2034	2948
1	2067	2949
1	2093	2950
1	2107	2951
1	2111	2952
1	2113	2953
1	2103	2954
1	2093	2955
1	2090	2956
1	2090	2957
1	2088	2958
1	2086	2959
1	2091	2960
1	2094	2961
1	2104	2962
1	2120	2963
1	2150	2964
1	2183	2965
1	2210	2966
1	2237	2967
1	2261	2968
1	2255	2969
1	2228	2970
1	2179	2971
1	2116	2972
1	2037	2973
1	1945	2974
1	1836	2975
1	1714	2976
1	1600	2977
1	1501	2978
1	1428	2979
1	1376	2980
1	1349	2981
1	1344	2982
1	1371	2983
1	1416	2984
1	1472	2985
1	1531	2986
1	1596	2987
1	1638	2988
1	1656	2989
1	1660	2990
1	1652	2991
1	1634	2992
1	1605	2993
1	1572	2994
1	1534	2995
1	1490	2996
1	1436	2997
1	1391	2998
1	1360	2999
1	1353	3000
1	1369	3001
1	1400	3002
1	1440	3003
1	1476	3004
1	1515	3005
1	1559	3006
1	1613	3007
1	1661	3008
1	1709	3009
1	1742	3010
1	1772	3011
1	1786	3012
1	1790	3013
1	1778	3014
1	1753	3015
1	1725	3016
1	1688	3017
1	1647	3018
1	1607	3019
1	1567	3020
1	1539	3021
1	1524	3022
1	1522	3023
1	1543	3024
1	1577	3025
1	1618	3026
1	1658	3027
1	1686	3028
1	1690	3029
1	1680	3030
1	1664	3031
1	1634	3032
1	1586	3033
1	1546	3034
1	1510	3035
1	1489	3036
1	1476	3037
1	1476	3038
1	1481	3039
1	1494	3040
1	1519	3041
1	1544	3042
1	1577	3043
1	1607	3044
1	1647	3045
1	1686	3046
1	1724	3047
1	1738	3048
1	1743	3049
1	1742	3050
1	1736	3051
1	1713	3052
1	1673	3053
1	1623	3054
1	1558	3055
1	1494	3056
1	1437	3057
1	1404	3058
1	1373	3059
1	1360	3060
1	1361	3061
1	1372	3062
1	1398	3063
1	1435	3064
1	1476	3065
1	1529	3066
1	1581	3067
1	1629	3068
1	1670	3069
1	1702	3070
1	1722	3071
1	1715	3072
1	1704	3073
1	1667	3074
1	1628	3075
1	1583	3076
1	1539	3077
1	1494	3078
1	1467	3079
1	1463	3080
1	1482	3081
1	1519	3082
1	1554	3083
1	1598	3084
1	1651	3085
1	1712	3086
1	1775	3087
1	1848	3088
1	1903	3089
1	1947	3090
1	1974	3091
1	1984	3092
1	1992	3093
1	1974	3094
1	1937	3095
1	1885	3096
1	1818	3097
1	1740	3098
1	1675	3099
1	1620	3100
1	1580	3101
1	1550	3102
1	1545	3103
1	1554	3104
1	1581	3105
1	1616	3106
1	1656	3107
1	1698	3108
1	1731	3109
1	1751	3110
1	1766	3111
1	1770	3112
1	1753	3113
1	1721	3114
1	1675	3115
1	1620	3116
1	1559	3117
1	1514	3118
1	1476	3119
1	1460	3120
1	1456	3121
1	1472	3122
1	1505	3123
1	1557	3124
1	1618	3125
1	1670	3126
1	1728	3127
1	1776	3128
1	1821	3129
1	1855	3130
1	1877	3131
1	1879	3132
1	1869	3133
1	1841	3134
1	1795	3135
1	1764	3136
1	1718	3137
1	1679	3138
1	1646	3139
1	1675	3160
1	1660	3161
1	1661	3162
1	1687	3163
1	1714	3164
1	1755	3165
1	1814	3166
1	1872	3167
1	1940	3168
1	1990	3169
1	2021	3170
1	2026	3171
1	2023	3172
1	2005	3173
1	1989	3174
1	1964	3175
1	1932	3176
1	1893	3177
1	1864	3178
1	1832	3179
1	1616	3140
1	1600	3141
1	1595	3142
1	1600	3143
1	1621	3144
1	1661	3145
1	1711	3146
1	1762	3147
1	1823	3148
1	1874	3149
1	1908	3150
1	1926	3151
1	1923	3152
1	1908	3153
1	1886	3154
1	1857	3155
1	1823	3156
1	1779	3157
1	1737	3158
1	1704	3159
1	1809	3180
1	1782	3181
1	1764	3182
1	1757	3183
1	1763	3184
1	1780	3185
1	1814	3186
1	1844	3187
1	1874	3188
1	1907	3189
1	1927	3190
1	1942	3191
1	1945	3192
1	1951	3193
1	1945	3194
1	1931	3195
1	1916	3196
1	1888	3197
1	1855	3198
1	1803	3199
1	1760	3200
1	1722	3201
1	1686	3202
1	1656	3203
1	1642	3204
1	1638	3205
1	1655	3206
1	1679	3207
1	1719	3208
1	1749	3209
1	1764	3210
1	1764	3211
1	1749	3212
1	1712	3213
1	1661	3214
1	1611	3215
1	1569	3216
1	1531	3217
1	1499	3218
1	1476	3219
1	1463	3220
1	1462	3221
1	1477	3222
1	1525	3223
1	1558	3224
1	1598	3225
1	1638	3226
1	1679	3227
1	1716	3228
1	1747	3229
1	1749	3230
1	1746	3231
1	1728	3232
1	1708	3233
1	1683	3234
1	1660	3235
1	1634	3236
1	1605	3237
1	1577	3238
1	1555	3239
1	1436	3280
1	1461	3281
1	1476	3282
1	1490	3283
1	1498	3284
1	1514	3285
1	1542	3286
1	1571	3287
1	1592	3288
1	1607	3289
1	1616	3290
1	1611	3291
1	1589	3292
1	1536	3293
1	1478	3294
1	1421	3295
1	1361	3296
1	1319	3297
1	1304	3298
1	1304	3299
1	1319	3300
1	1344	3301
1	1377	3302
1	1421	3303
1	1451	3304
1	1485	3305
1	1519	3306
1	1561	3307
1	1607	3308
1	1659	3309
1	1710	3310
1	1748	3311
1	1764	3312
1	1764	3313
1	1724	3314
1	1661	3315
1	1589	3316
1	1516	3317
1	1455	3318
1	1423	3319
1	1503	3260
1	1506	3261
1	1515	3262
1	1517	3263
1	1523	3264
1	1533	3265
1	1549	3266
1	1556	3267
1	1571	3268
1	1566	3269
1	1555	3270
1	1537	3271
1	1514	3272
1	1490	3273
1	1462	3274
1	1437	3275
1	1415	3276
1	1406	3277
1	1405	3278
1	1418	3279
1	1542	3240
1	1538	3241
1	1549	3242
1	1566	3243
1	1590	3244
1	1616	3245
1	1646	3246
1	1674	3247
1	1694	3248
1	1711	3249
1	1716	3250
1	1712	3251
1	1703	3252
1	1698	3253
1	1664	3254
1	1618	3255
1	1567	3256
1	1529	3257
1	1506	3258
1	1503	3259
1	1409	3320
1	1410	3321
1	1424	3322
1	1447	3323
1	1481	3324
1	1529	3325
1	1584	3326
1	1636	3327
1	1697	3328
1	1731	3329
1	1738	3330
1	1718	3331
1	1691	3332
1	1639	3333
1	1589	3334
1	1530	3335
1	1476	3336
1	1433	3337
1	1399	3338
1	1377	3339
1	1382	3340
1	1403	3341
1	1433	3342
1	1477	3343
1	1528	3344
1	1581	3345
1	1632	3346
1	1683	3347
1	1718	3348
1	1747	3349
1	1766	3350
1	1782	3351
1	1785	3352
1	1760	3353
1	1715	3354
1	1653	3355
1	1584	3356
1	1518	3357
1	1471	3358
1	1418	3359
1	1360	3360
1	1315	3361
1	1289	3362
1	1284	3363
1	1305	3364
1	1345	3365
1	1377	3366
1	1407	3367
1	1422	3368
1	1438	3369
1	1467	3370
1	1490	3371
1	1496	3372
1	1508	3373
1	1508	3374
1	1503	3375
1	1501	3376
1	1499	3377
1	1503	3378
1	1514	3379
1	1529	3380
1	1542	3381
1	1558	3382
1	1579	3383
1	1603	3384
1	1634	3385
1	1660	3386
1	1678	3387
1	1708	3388
1	1724	3389
1	1738	3390
1	1743	3391
1	1739	3392
1	1715	3393
1	1685	3394
1	1650	3395
1	1607	3396
1	1566	3397
1	1525	3398
1	1500	3399
1	1486	3400
1	1487	3401
1	1499	3402
1	1523	3403
1	1551	3404
1	1586	3405
1	1629	3406
1	1668	3407
1	1694	3408
1	1697	3409
1	1686	3410
1	1665	3411
1	1636	3412
1	1593	3413
1	1553	3414
1	1519	3415
1	1485	3416
1	1456	3417
1	1437	3418
1	1418	3419
1	1447	3440
1	1418	3441
1	1403	3442
1	1404	3443
1	1415	3444
1	1441	3445
1	1481	3446
1	1529	3447
1	1571	3448
1	1600	3449
1	1624	3450
1	1639	3451
1	1655	3452
1	1660	3453
1	1652	3454
1	1634	3455
1	1613	3456
1	1584	3457
1	1542	3458
1	1517	3459
1	1399	3420
1	1395	3421
1	1402	3422
1	1436	3423
1	1489	3424
1	1555	3425
1	1621	3426
1	1690	3427
1	1747	3428
1	1795	3429
1	1822	3430
1	1819	3431
1	1801	3432
1	1785	3433
1	1750	3434
1	1705	3435
1	1647	3436
1	1598	3437
1	1529	3438
1	1488	3439
1	1505	3460
1	1505	3461
1	1521	3462
1	1554	3463
1	1589	3464
1	1632	3465
1	1674	3466
1	1712	3467
1	1738	3468
1	1760	3469
1	1764	3470
1	1749	3471
1	1721	3472
1	1679	3473
1	1629	3474
1	1577	3475
1	1534	3476
1	1507	3477
1	1489	3478
1	1474	3479
1	1476	3480
1	1497	3481
1	1521	3482
1	1550	3483
1	1590	3484
1	1637	3485
1	1680	3486
1	1713	3487
1	1727	3488
1	1729	3489
1	1722	3490
1	1705	3491
1	1676	3492
1	1643	3493
1	1598	3494
1	1556	3495
1	1526	3496
1	1500	3497
1	1487	3498
1	1490	3499
1	1503	3500
1	1529	3501
1	1555	3502
1	1580	3503
1	1602	3504
1	1628	3505
1	1644	3506
1	1660	3507
1	1677	3508
1	1686	3509
1	1686	3510
1	1676	3511
1	1657	3512
1	1629	3513
1	1608	3514
1	1604	3515
1	1599	3516
1	1597	3517
1	1607	3518
1	1639	3519
1	1686	3520
1	1736	3521
1	1773	3522
1	1796	3523
1	1795	3524
1	1782	3525
1	1764	3526
1	1739	3527
1	1718	3528
1	1690	3529
1	1661	3530
1	1629	3531
1	1589	3532
1	1553	3533
1	1517	3534
1	1482	3535
1	1454	3536
1	1437	3537
1	1425	3538
1	1424	3539
1	1437	3540
1	1461	3541
1	1500	3542
1	1536	3543
1	1580	3544
1	1629	3545
1	1676	3546
1	1733	3547
1	1788	3548
1	1818	3549
1	1837	3550
1	1835	3551
1	1819	3552
1	1790	3553
1	1749	3554
1	1695	3555
1	1625	3556
1	1544	3557
1	1467	3558
1	1401	3559
1	1358	3560
1	1346	3561
1	1359	3562
1	1397	3563
1	1438	3564
1	1495	3565
1	1551	3566
1	1602	3567
1	1659	3568
1	1705	3569
1	1738	3570
1	1751	3571
1	1750	3572
1	1727	3573
1	1697	3574
1	1661	3575
1	1631	3576
1	1594	3577
1	1550	3578
1	1519	3579
1	1499	3580
1	1490	3581
1	1503	3582
1	1531	3583
1	1571	3584
1	1612	3585
1	1660	3586
1	1705	3587
1	1751	3588
1	1795	3589
1	1827	3590
1	1841	3591
1	1843	3592
1	1837	3593
1	1817	3594
1	1773	3595
1	1724	3596
1	1677	3597
1	1634	3598
1	1581	3599
1	1538	3600
1	1510	3601
1	1499	3602
1	1508	3603
1	1541	3604
1	1584	3605
1	1647	3606
1	1714	3607
1	1770	3608
1	1831	3609
1	1872	3610
1	1899	3611
1	1919	3612
1	1924	3613
1	1909	3614
1	1872	3615
1	1817	3616
1	1741	3617
1	1672	3618
1	1616	3619
1	1577	3620
1	1555	3621
1	1553	3622
1	1555	3623
1	1566	3624
1	1586	3625
1	1607	3626
1	1634	3627
1	1661	3628
1	1686	3629
1	1711	3630
1	1728	3631
1	1749	3632
1	1738	3633
1	1725	3634
1	1704	3635
1	1682	3636
1	1659	3637
1	1633	3638
1	1608	3639
1	1590	3640
1	1571	3641
1	1556	3642
1	1555	3643
1	1555	3644
1	1562	3645
1	1574	3646
1	1595	3647
1	1612	3648
1	1636	3649
1	1660	3650
1	1669	3651
1	1675	3652
1	1670	3653
1	1669	3654
1	1657	3655
1	1634	3656
1	1607	3657
1	1590	3658
1	1579	3659
1	1577	3660
1	1592	3661
1	1625	3662
1	1665	3663
1	1712	3664
1	1751	3665
1	1780	3666
1	1813	3667
1	1827	3668
1	1837	3669
1	1838	3670
1	1823	3671
1	1796	3672
1	1769	3673
1	1729	3674
1	1679	3675
1	1621	3676
1	1569	3677
1	1521	3678
1	1487	3679
1	1476	3680
1	1482	3681
1	1499	3682
1	1514	3683
1	1535	3684
1	1563	3685
1	1596	3686
1	1636	3687
1	1687	3688
1	1730	3689
1	1762	3690
1	1782	3691
1	1788	3692
1	1773	3693
1	1750	3694
1	1718	3695
1	1683	3696
1	1638	3697
1	1591	3698
1	1554	3699
1	1528	3700
1	1517	3701
1	1523	3702
1	1544	3703
1	1572	3704
1	1605	3705
1	1648	3706
1	1699	3707
1	1747	3708
1	1777	3709
1	1789	3710
1	1785	3711
1	1769	3712
1	1737	3713
1	1688	3714
1	1629	3715
1	1560	3716
1	1503	3717
1	1463	3718
1	1428	3719
1	1400	3720
1	1373	3721
1	1370	3722
1	1382	3723
1	1418	3724
1	1467	3725
1	1532	3726
1	1605	3727
1	1660	3728
1	1706	3729
1	1742	3730
1	1763	3731
1	1760	3732
1	1747	3733
1	1731	3734
1	1708	3735
1	1665	3736
1	1626	3737
1	1576	3738
1	1539	3739
1	1517	3740
1	1505	3741
1	1516	3742
1	1535	3743
1	1577	3744
1	1625	3745
1	1679	3746
1	1736	3747
1	1778	3748
1	1813	3749
1	1823	3750
1	1819	3751
1	1810	3752
1	1788	3753
1	1765	3754
1	1739	3755
1	1710	3756
1	1674	3757
1	1628	3758
1	1587	3759
1	1548	3760
1	1513	3761
1	1497	3762
1	1494	3763
1	1499	3764
1	1515	3765
1	1535	3766
1	1562	3767
1	1590	3768
1	1607	3769
1	1621	3770
1	1632	3771
1	1636	3772
1	1632	3773
1	1631	3774
1	1634	3775
1	1634	3776
1	1643	3777
1	1672	3778
1	1715	3779
1	1764	3780
1	1816	3781
1	1856	3782
1	1904	3783
1	1958	3784
1	2011	3785
1	2057	3786
1	2102	3787
1	2131	3788
1	2161	3789
1	2183	3790
1	2197	3791
1	2208	3792
1	2210	3793
1	2192	3794
1	2158	3795
1	2111	3796
1	2066	3797
1	2025	3798
1	1992	3799
1	1971	3800
1	1969	3801
1	1985	3802
1	2009	3803
1	2043	3804
1	2084	3805
1	2129	3806
1	2173	3807
1	2217	3808
1	2237	3809
1	2219	3810
1	2175	3811
1	2115	3812
1	2037	3813
1	1943	3814
1	1843	3815
1	1744	3816
1	1656	3817
1	1566	3818
1	1500	3819
1	1625	3840
1	1639	3841
1	1674	3842
1	1715	3843
1	1763	3844
1	1798	3845
1	1827	3846
1	1835	3847
1	1827	3848
1	1821	3849
1	1809	3850
1	1778	3851
1	1744	3852
1	1708	3853
1	1660	3854
1	1608	3855
1	1557	3856
1	1503	3857
1	1469	3858
1	1450	3859
1	1440	3820
1	1401	3821
1	1381	3822
1	1381	3823
1	1384	3824
1	1400	3825
1	1436	3826
1	1489	3827
1	1554	3828
1	1629	3829
1	1683	3830
1	1729	3831
1	1757	3832
1	1765	3833
1	1756	3834
1	1730	3835
1	1693	3836
1	1660	3837
1	1636	3838
1	1623	3839
1	1447	3860
1	1449	3861
1	1450	3862
1	1450	3863
1	1461	3864
1	1490	3865
1	1523	3866
1	1556	3867
1	1599	3868
1	1628	3869
1	1649	3870
1	1661	3871
1	1658	3872
1	1646	3873
1	1631	3874
1	1605	3875
1	1562	3876
1	1527	3877
1	1485	3878
1	1458	3879
1	1445	3880
1	1450	3881
1	1476	3882
1	1529	3883
1	1587	3884
1	1649	3885
1	1708	3886
1	1762	3887
1	1814	3888
1	1852	3889
1	1859	3890
1	1843	3891
1	1809	3892
1	1750	3893
1	1701	3894
1	1654	3895
1	1616	3896
1	1590	3897
1	1579	3898
1	1580	3899
1	1591	3900
1	1610	3901
1	1636	3902
1	1662	3903
1	1684	3904
1	1693	3905
1	1694	3906
1	1692	3907
1	1680	3908
1	1679	3909
1	1686	3910
1	1699	3911
1	1718	3912
1	1740	3913
1	1749	3914
1	1751	3915
1	1750	3916
1	1747	3917
1	1748	3918
1	1743	3919
1	1729	3920
1	1716	3921
1	1712	3922
1	1712	3923
1	1723	3924
1	1738	3925
1	1751	3926
1	1773	3927
1	1817	3928
1	1856	3929
1	1885	3930
1	1892	3931
1	1884	3932
1	1842	3933
1	1800	3934
1	1751	3935
1	1698	3936
1	1647	3937
1	1599	3938
1	1555	3939
1	1518	3940
1	1489	3941
1	1474	3942
1	1464	3943
1	1461	3944
1	1463	3945
1	1466	3946
1	1478	3947
1	1499	3948
1	1533	3949
1	1581	3950
1	1633	3951
1	1670	3952
1	1697	3953
1	1705	3954
1	1703	3955
1	1687	3956
1	1660	3957
1	1636	3958
1	1618	3959
1	1863	3980
1	1852	3981
1	1843	3982
1	1833	3983
1	1835	3984
1	1830	3985
1	1832	3986
1	1847	3987
1	1875	3988
1	1908	3989
1	1943	3990
1	1967	3991
1	1976	3992
1	1971	3993
1	1967	3994
1	1974	3995
1	1989	3996
1	1994	3997
1	1974	3998
1	1942	3999
1	1608	3960
1	1616	3961
1	1637	3962
1	1672	3963
1	1719	3964
1	1769	3965
1	1825	3966
1	1867	3967
1	1894	3968
1	1908	3969
1	1917	3970
1	1917	3971
1	1914	3972
1	1908	3973
1	1897	3974
1	1885	3975
1	1877	3976
1	1872	3977
1	1869	3978
1	1868	3979
1	1900	4000
1	1856	4001
1	1815	4002
1	1788	4003
1	1777	4004
1	1783	4005
1	1800	4006
1	1826	4006
1	1844	4008
1	1860	4009
1	1870	4010
1	1875	4011
1	1872	4012
1	1860	4013
1	1854	4014
1	1850	4014
1	1853	4016
1	1845	4017
1	1842	4018
1	1830	4019
1	1738	4040
1	1734	4041
1	1742	4042
1	1760	4043
1	1791	4044
1	1843	4045
1	1886	4046
1	1913	4046
1	1922	4048
1	1909	4049
1	1892	4050
1	1867	4051
1	1823	4052
1	1770	4053
1	1712	4054
1	1647	4054
1	1587	4056
1	1543	4057
1	1515	4058
1	1503	4059
1	1814	4020
1	1790	4021
1	1766	4022
1	1755	4022
1	1752	4024
1	1760	4025
1	1767	4026
1	1785	4027
1	1796	4028
1	1815	4029
1	1834	4030
1	1854	4030
1	1871	4032
1	1886	4033
1	1891	4034
1	1872	4035
1	1837	4036
1	1814	4037
1	1778	4038
1	1752	4038
1	1511	4060
1	1528	4061
1	1548	4062
1	1572	4062
1	1593	4064
1	1618	4065
1	1652	4066
1	1692	4067
1	1740	4068
1	1790	4069
1	1829	4070
1	1843	4070
1	1834	4072
1	1791	4073
1	1750	4074
1	1697	4075
1	1647	4076
1	1610	4077
1	1581	4078
1	1547	4078
1	1503	4100
1	1513	4101
1	1534	4102
1	1555	4103
1	1581	4104
1	1616	4105
1	1659	4106
1	1695	4107
1	1721	4108
1	1724	4109
1	1711	4110
1	1683	4111
1	1634	4112
1	1572	4113
1	1505	4114
1	1445	4115
1	1395	4116
1	1346	4117
1	1308	4118
1	1293	4119
1	1512	4080
1	1485	4081
1	1467	4082
1	1456	4083
1	1461	4084
1	1476	4085
1	1499	4086
1	1526	4086
1	1554	4088
1	1580	4089
1	1584	4090
1	1571	4091
1	1544	4092
1	1521	4093
1	1497	4094
1	1477	4094
1	1473	4096
1	1476	4097
1	1486	4098
1	1497	4099
1	1295	4120
1	1317	4121
1	1350	4122
1	1413	4123
1	1473	4124
1	1536	4125
1	1592	4126
1	1639	4127
1	1680	4128
1	1711	4129
1	1721	4130
1	1708	4131
1	1685	4132
1	1650	4133
1	1609	4134
1	1562	4135
1	1513	4136
1	1476	4137
1	1448	4138
1	1428	4139
1	1417	4140
1	1426	4141
1	1451	4142
1	1477	4143
1	1507	4144
1	1538	4145
1	1569	4146
1	1597	4147
1	1629	4148
1	1656	4149
1	1683	4150
1	1700	4151
1	1709	4152
1	1713	4153
1	1705	4154
1	1683	4155
1	1638	4156
1	1583	4157
1	1526	4158
1	1478	4159
1	1286	4180
1	1270	4181
1	1277	4182
1	1307	4183
1	1348	4184
1	1413	4185
1	1489	4186
1	1567	4187
1	1634	4188
1	1697	4189
1	1738	4190
1	1764	4191
1	1764	4192
1	1749	4193
1	1710	4194
1	1649	4195
1	1587	4196
1	1541	4197
1	1520	4198
1	1507	4199
1	1449	4160
1	1436	4161
1	1431	4162
1	1436	4163
1	1448	4164
1	1475	4165
1	1511	4166
1	1559	4167
1	1610	4168
1	1655	4169
1	1703	4170
1	1744	4171
1	1757	4172
1	1736	4173
1	1686	4174
1	1616	4175
1	1539	4176
1	1458	4177
1	1373	4178
1	1319	4179
1	1503	4200
1	1494	4201
1	1493	4202
1	1490	4203
1	1491	4204
1	1503	4205
1	1518	4206
1	1537	4207
1	1555	4208
1	1566	4209
1	1581	4210
1	1598	4211
1	1617	4212
1	1643	4213
1	1656	4214
1	1654	4215
1	1647	4216
1	1634	4217
1	1610	4218
1	1582	4219
1	1553	4220
1	1529	4221
1	1516	4222
1	1508	4223
1	1521	4224
1	1540	4225
1	1555	4226
1	1565	4227
1	1581	4228
1	1595	4229
1	1605	4230
1	1605	4231
1	1602	4232
1	1580	4233
1	1555	4234
1	1529	4235
1	1503	4236
1	1477	4237
1	1463	4238
1	1456	4239
1	1458	4240
1	1476	4241
1	1502	4242
1	1538	4243
1	1580	4244
1	1618	4245
1	1652	4246
1	1688	4247
1	1712	4248
1	1718	4249
1	1710	4250
1	1690	4251
1	1675	4252
1	1655	4253
1	1635	4254
1	1608	4255
1	1580	4256
1	1542	4257
1	1508	4258
1	1481	4259
1	1471	4260
1	1466	4261
1	1472	4262
1	1489	4263
1	1517	4264
1	1554	4265
1	1584	4266
1	1616	4267
1	1643	4268
1	1665	4269
1	1684	4270
1	1686	4271
1	1661	4272
1	1636	4273
1	1603	4274
1	1563	4275
1	1529	4276
1	1502	4277
1	1487	4278
1	1484	4279
1	1499	4280
1	1526	4281
1	1564	4282
1	1616	4283
1	1674	4284
1	1733	4285
1	1778	4286
1	1800	4287
1	1809	4288
1	1780	4289
1	1751	4290
1	1712	4291
1	1669	4292
1	1622	4293
1	1572	4294
1	1517	4295
1	1471	4296
1	1437	4297
1	1419	4298
1	1424	4299
1	1437	4300
1	1450	4301
1	1476	4302
1	1512	4303
1	1548	4304
1	1581	4305
1	1608	4306
1	1643	4307
1	1665	4308
1	1679	4309
1	1677	4310
1	1654	4311
1	1612	4312
1	1566	4313
1	1531	4314
1	1503	4315
1	1477	4316
1	1457	4317
1	1443	4318
1	1437	4319
1	1517	4340
1	1510	4341
1	1524	4342
1	1541	4343
1	1564	4344
1	1592	4345
1	1612	4346
1	1638	4347
1	1654	4348
1	1659	4349
1	1660	4350
1	1656	4351
1	1634	4352
1	1595	4353
1	1554	4354
1	1521	4355
1	1502	4356
1	1487	4357
1	1472	4358
1	1468	4359
1	1447	4320
1	1463	4321
1	1490	4322
1	1526	4323
1	1570	4324
1	1616	4325
1	1661	4326
1	1705	4327
1	1739	4328
1	1772	4329
1	1800	4330
1	1817	4331
1	1814	4332
1	1793	4333
1	1764	4334
1	1717	4335
1	1669	4336
1	1634	4337
1	1584	4338
1	1543	4339
1	1424	4380
1	1405	4381
1	1403	4382
1	1423	4383
1	1453	4384
1	1503	4385
1	1560	4386
1	1620	4387
1	1662	4388
1	1705	4389
1	1737	4390
1	1754	4391
1	1764	4392
1	1769	4393
1	1762	4394
1	1744	4395
1	1725	4396
1	1697	4397
1	1664	4398
1	1622	4399
1	1477	4360
1	1503	4361
1	1546	4362
1	1594	4363
1	1634	4364
1	1673	4365
1	1712	4366
1	1753	4367
1	1796	4368
1	1834	4369
1	1854	4370
1	1856	4371
1	1843	4372
1	1795	4373
1	1752	4374
1	1694	4375
1	1625	4376
1	1557	4377
1	1503	4378
1	1458	4379
1	1572	4400
1	1525	4401
1	1490	4402
1	1478	4403
1	1490	4404
1	1518	4405
1	1557	4406
1	1597	4407
1	1638	4408
1	1670	4409
1	1695	4410
1	1713	4411
1	1719	4412
1	1715	4413
1	1703	4414
1	1684	4415
1	1659	4416
1	1628	4417
1	1593	4418
1	1571	4419
1	1491	4440
1	1498	4441
1	1530	4442
1	1577	4443
1	1630	4444
1	1685	4445
1	1741	4446
1	1791	4447
1	1845	4448
1	1880	4449
1	1909	4450
1	1922	4451
1	1921	4452
1	1904	4453
1	1868	4454
1	1817	4455
1	1760	4456
1	1700	4457
1	1641	4458
1	1598	4459
1	1554	4420
1	1542	4421
1	1553	4422
1	1580	4423
1	1608	4424
1	1648	4425
1	1687	4426
1	1728	4427
1	1760	4428
1	1795	4429
1	1817	4430
1	1827	4431
1	1818	4432
1	1791	4433
1	1756	4434
1	1712	4435
1	1661	4436
1	1609	4437
1	1555	4438
1	1514	4439
1	1581	4460
1	1582	4461
1	1589	4462
1	1600	4463
1	1618	4464
1	1647	4465
1	1684	4466
1	1730	4467
1	1778	4468
1	1818	4469
1	1854	4470
1	1883	4471
1	1898	4472
1	1905	4473
1	1895	4474
1	1867	4475
1	1826	4476
1	1777	4477
1	1723	4478
1	1682	4479
1	1654	4500
1	1665	4501
1	1686	4502
1	1714	4503
1	1747	4504
1	1778	4505
1	1814	4506
1	1843	4507
1	1870	4508
1	1891	4509
1	1899	4510
1	1904	4511
1	1906	4512
1	1899	4513
1	1873	4514
1	1831	4515
1	1767	4516
1	1697	4517
1	1625	4518
1	1567	4519
1	1642	4480
1	1607	4481
1	1580	4482
1	1570	4483
1	1577	4484
1	1599	4485
1	1635	4486
1	1674	4487
1	1701	4488
1	1728	4489
1	1751	4490
1	1764	4491
1	1765	4492
1	1757	4493
1	1747	4494
1	1737	4495
1	1720	4496
1	1694	4497
1	1670	4498
1	1654	4499
1	1529	4520
1	1513	4521
1	1520	4522
1	1532	4523
1	1544	4524
1	1554	4525
1	1555	4526
1	1566	4527
1	1587	4528
1	1629	4529
1	1660	4530
1	1686	4531
1	1707	4532
1	1703	4533
1	1690	4534
1	1669	4535
1	1644	4536
1	1633	4537
1	1634	4538
1	1646	4539
1	1671	4540
1	1697	4541
1	1724	4542
1	1756	4543
1	1786	4544
1	1817	4545
1	1840	4546
1	1862	4547
1	1871	4548
1	1878	4549
1	1881	4550
1	1872	4551
1	1857	4552
1	1822	4553
1	1795	4554
1	1767	4555
1	1751	4556
1	1744	4557
1	1747	4558
1	1747	4559
1	1746	4560
1	1744	4561
1	1757	4562
1	1778	4563
1	1811	4564
1	1851	4565
1	1898	4566
1	1948	4567
1	1975	4568
1	1976	4569
1	1960	4570
1	1914	4571
1	1854	4572
1	1782	4573
1	1712	4574
1	1646	4575
1	1592	4576
1	1550	4577
1	1517	4578
1	1499	4579
1	1502	4580
1	1525	4581
1	1567	4582
1	1626	4583
1	1685	4584
1	1752	4585
1	1827	4586
1	1880	4587
1	1922	4588
1	1942	4589
1	1949	4590
1	1956	4591
1	1953	4592
1	1946	4593
1	1924	4594
1	1895	4595
1	1849	4596
1	1795	4597
1	1741	4598
1	1715	4599
1	1691	4600
1	1673	4601
1	1670	4602
1	1686	4603
1	1716	4604
1	1764	4605
1	1824	4606
1	1875	4607
1	1924	4608
1	1964	4609
1	1987	4610
1	1985	4611
1	1973	4612
1	1938	4613
1	1903	4614
1	1865	4615
1	1836	4616
1	1819	4617
1	1823	4618
1	1832	4619
1	2294	4640
1	2276	4641
1	2262	4642
1	2246	4643
1	2246	4644
1	2251	4645
1	2260	4646
1	2258	4647
1	2241	4648
1	2218	4649
1	2197	4650
1	2183	4651
1	2150	4652
1	2097	4653
1	2039	4654
1	1979	4655
1	1917	4656
1	1855	4657
1	1777	4658
1	1738	4659
1	1857	4620
1	1898	4621
1	1960	4622
1	2024	4623
1	2094	4624
1	2170	4625
1	2253	4626
1	2323	4627
1	2390	4628
1	2437	4629
1	2472	4630
1	2488	4631
1	2476	4632
1	2454	4633
1	2427	4634
1	2402	4635
1	2372	4636
1	2358	4637
1	2336	4638
1	2314	4639
1	1704	4660
1	1692	4661
1	1700	4662
1	1737	4663
1	1778	4664
1	1834	4665
1	1893	4666
1	1937	4667
1	1976	4668
1	2017	4669
1	2051	4670
1	2073	4671
1	2073	4672
1	2037	4673
1	1994	4674
1	1922	4675
1	1843	4676
1	1767	4677
1	1738	4678
1	1728	4679
1	1741	4680
1	1766	4681
1	1811	4682
1	1857	4683
1	1910	4684
1	1965	4685
1	2019	4686
1	2055	4687
1	2066	4688
1	2063	4689
1	2039	4690
1	1998	4691
1	1948	4692
1	1901	4693
1	1856	4694
1	1816	4695
1	1778	4696
1	1746	4697
1	1720	4698
1	1707	4699
1	1707	4700
1	1718	4701
1	1746	4702
1	1791	4703
1	1840	4704
1	1895	4705
1	1950	4706
1	1999	4707
1	2039	4708
1	2064	4709
1	2070	4710
1	2063	4711
1	2042	4712
1	2003	4713
1	1952	4714
1	1896	4715
1	1847	4716
1	1812	4717
1	1774	4718
1	1764	4719
1	1764	4720
1	1780	4721
1	1815	4722
1	1858	4723
1	1897	4724
1	1940	4725
1	1991	4726
1	2052	4727
1	2111	4728
1	2156	4729
1	2168	4730
1	2168	4731
1	2152	4732
1	2124	4733
1	2094	4734
1	2067	4735
1	2048	4736
1	2017	4737
1	1978	4738
1	1938	4739
1	1895	4740
1	1857	4741
1	1843	4742
1	1841	4743
1	1857	4744
1	1883	4745
1	1909	4746
1	1931	4747
1	1948	4748
1	1955	4749
1	1960	4750
1	1955	4751
1	1952	4752
1	1950	4753
1	1942	4754
1	1926	4755
1	1904	4756
1	1881	4757
1	1868	4758
1	1856	4759
1	1856	4760
1	1868	4761
1	1895	4762
1	1932	4763
1	1966	4764
1	2000	4765
1	2025	4766
1	2041	4767
1	2060	4768
1	2079	4769
1	2105	4770
1	2117	4771
1	2114	4772
1	2088	4773
1	2052	4774
1	2000	4775
1	1948	4776
1	1899	4777
1	1857	4778
1	1838	4779
1	1828	4780
1	1842	4781
1	1868	4782
1	1908	4783
1	1948	4784
1	1991	4785
1	2040	4786
1	2090	4787
1	2135	4788
1	2183	4789
1	2209	4790
1	2218	4791
1	2210	4792
1	2178	4793
1	2143	4794
1	2110	4795
1	2081	4796
1	2053	4797
1	2027	4798
1	1988	4799
1	1952	4800
1	1933	4801
1	1930	4802
1	1948	4803
1	1986	4804
1	2034	4805
1	2079	4806
1	2119	4807
1	2138	4808
1	2148	4809
1	2157	4810
1	2162	4811
1	2163	4812
1	2159	4813
1	2147	4814
1	2121	4815
1	2091	4816
1	2057	4817
1	2028	4818
1	2013	4819
1	2013	4820
1	2027	4821
1	2060	4822
1	2118	4823
1	2170	4824
1	2234	4825
1	2279	4826
1	2310	4827
1	2336	4828
1	2341	4829
1	2315	4830
1	2287	4831
1	2246	4832
1	2188	4833
1	2139	4834
1	2096	4835
1	2054	4836
1	2014	4837
1	1976	4838
1	1956	4839
1	1948	4840
1	1960	4841
1	1983	4842
1	2008	4843
1	2043	4844
1	2081	4845
1	2131	4846
1	2192	4847
1	2247	4848
1	2284	4849
1	2305	4850
1	2314	4851
1	2312	4852
1	2275	4853
1	2237	4854
1	2181	4855
1	2127	4856
1	2078	4857
1	2040	4858
1	2009	4859
1	1991	4860
1	1993	4861
1	2014	4862
1	2052	4863
1	2102	4864
1	2148	4865
1	2197	4866
1	2248	4867
1	2276	4868
1	2288	4869
1	2284	4870
1	2261	4871
1	2233	4872
1	2201	4873
1	2168	4874
1	2131	4875
1	2100	4876
1	2065	4877
1	2038	4878
1	2024	4879
1	2026	4880
1	2043	4881
1	2073	4882
1	2115	4883
1	2146	4884
1	2178	4885
1	2202	4886
1	2237	4887
1	2274	4888
1	2292	4889
1	2296	4890
1	2284	4891
1	2262	4892
1	2218	4893
1	2170	4894
1	2119	4895
1	2070	4896
1	2029	4897
1	1992	4898
1	1969	4899
1	1948	4900
1	1935	4901
1	1921	4902
1	1916	4903
1	1903	4904
1	1895	4905
1	1895	4906
1	1896	4907
1	1903	4908
1	1906	4909
1	1904	4910
1	1908	4911
1	1908	4912
1	1895	4913
1	1888	4914
1	1882	4915
1	1868	4916
1	1849	4917
1	1832	4918
1	1825	4919
1	1827	4920
1	1839	4921
1	1855	4922
1	1878	4923
1	1900	4924
1	1924	4925
1	1950	4926
1	1974	4927
1	1999	4928
1	2014	4929
1	2018	4930
1	2002	4931
1	1962	4932
1	1919	4933
1	1872	4934
1	1827	4935
1	1773	4936
1	1736	4937
1	1703	4938
1	1700	4939
1	1714	4940
1	1743	4941
1	1786	4942
1	1843	4943
1	1901	4944
1	1957	4945
1	2000	4946
1	2032	4947
1	2052	4948
1	2058	4949
1	2052	4950
1	2045	4951
1	2029	4952
1	2011	4953
1	1981	4954
1	1945	4955
1	1895	4956
1	1843	4957
1	1762	4958
1	1718	4959
1	1686	4960
1	1672	4961
1	1686	4962
1	1728	4963
1	1781	4964
1	1846	4965
1	1913	4966
1	1976	4967
1	2034	4968
1	2079	4969
1	2106	4970
1	2123	4971
1	2122	4972
1	2096	4973
1	2070	4974
1	2027	4975
1	1971	4976
1	1904	4977
1	1845	4978
1	1791	4979
1	1740	4980
1	1712	4981
1	1694	4982
1	1686	4983
1	1695	4984
1	1717	4985
1	1751	4986
1	1773	4987
1	1813	4988
1	1842	4989
1	1875	4990
1	1906	4991
1	1940	4992
1	1962	4993
1	1960	4994
1	1940	4995
1	1904	4996
1	1848	4997
1	1792	4998
1	1760	4999
1	1751	5000
1	1759	5001
1	1776	5002
1	1803	5003
1	1835	5004
1	1869	5005
1	1912	5006
1	1962	5007
1	2007	5008
1	2026	5009
1	2021	5010
1	2000	5011
1	1967	5012
1	1926	5013
1	1884	5014
1	1845	5015
1	1803	5016
1	1767	5017
1	1734	5018
1	1716	5019
1	1710	5020
1	1715	5021
1	1737	5022
1	1780	5023
1	1840	5024
1	1905	5025
1	1968	5026
1	2021	5027
1	2050	5028
1	2064	5029
1	2055	5030
1	2039	5031
1	2006	5032
1	1968	5033
1	1922	5034
1	1867	5035
1	1815	5036
1	1759	5037
1	1714	5038
1	1682	5039
1	1660	5040
1	1652	5041
1	1670	5042
1	1695	5043
1	1731	5044
1	1780	5045
1	1843	5046
1	1900	5047
1	1962	5048
1	2000	5049
1	2040	5050
1	2070	5051
1	2075	5052
1	2058	5053
1	2022	5054
1	1971	5055
1	1909	5056
1	1850	5057
1	1789	5058
1	1738	5059
1	1699	5060
1	1670	5061
1	1660	5062
1	1659	5063
1	1674	5064
1	1713	5065
1	1764	5066
1	1823	5067
1	1888	5068
1	1947	5069
1	1998	5070
1	2026	5071
1	2043	5072
1	2030	5073
1	1993	5074
1	1935	5075
1	1870	5076
1	1802	5077
1	1729	5078
1	1677	5079
1	1777	5100
1	1788	5101
1	1802	5102
1	1823	5103
1	1845	5104
1	1869	5105
1	1903	5106
1	1949	5107
1	1992	5108
1	2008	5109
1	2009	5110
1	1994	5111
1	1967	5112
1	1930	5113
1	1879	5114
1	1830	5115
1	1778	5116
1	1737	5117
1	1697	5118
1	1669	5119
1	1629	5080
1	1607	5081
1	1610	5082
1	1639	5083
1	1680	5084
1	1728	5085
1	1780	5086
1	1837	5087
1	1878	5088
1	1908	5089
1	1935	5090
1	1950	5091
1	1959	5092
1	1953	5093
1	1929	5094
1	1895	5095
1	1856	5096
1	1824	5097
1	1800	5098
1	1782	5099
1	1648	5120
1	1646	5121
1	1644	5122
1	1658	5123
1	1682	5124
1	1718	5125
1	1764	5126
1	1827	5127
1	1888	5128
1	1937	5129
1	1965	5130
1	1982	5131
1	2001	5132
1	2002	5133
1	1989	5134
1	1953	5135
1	1908	5136
1	1868	5137
1	1826	5138
1	1791	5139
1	1773	5140
1	1770	5141
1	1784	5142
1	1802	5143
1	1836	5144
1	1872	5145
1	1909	5146
1	1944	5147
1	1957	5148
1	1953	5149
1	1935	5150
1	1904	5151
1	1856	5152
1	1781	5153
1	1736	5154
1	1683	5155
1	1638	5156
1	1607	5157
1	1589	5158
1	1592	5159
1	1607	5160
1	1634	5161
1	1682	5162
1	1737	5163
1	1803	5164
1	1869	5165
1	1922	5166
1	1975	5167
1	2021	5168
1	2039	5169
1	2048	5170
1	2029	5171
1	1999	5172
1	1955	5173
1	1895	5174
1	1836	5175
1	1777	5176
1	1734	5177
1	1707	5178
1	1698	5179
1	1706	5180
1	1729	5181
1	1769	5182
1	1825	5183
1	1871	5184
1	1924	5185
1	1960	5186
1	1974	5187
1	1973	5188
1	1946	5189
1	1906	5190
1	1856	5191
1	1797	5192
1	1743	5193
1	1692	5194
1	1634	5195
1	1576	5196
1	1529	5197
1	1484	5198
1	1476	5199
1	1487	5200
1	1528	5201
1	1581	5202
1	1656	5203
1	1730	5204
1	1803	5205
1	1880	5206
1	1944	5207
1	1998	5208
1	2035	5209
1	2058	5210
1	2062	5211
1	2052	5212
1	2017	5213
1	1975	5214
1	1908	5215
1	1838	5216
1	1764	5217
1	1703	5218
1	1656	5219
1	1629	5220
1	1628	5221
1	1647	5222
1	1680	5223
1	1716	5224
1	1763	5225
1	1798	5226
1	1830	5227
1	1846	5228
1	1857	5229
1	1863	5230
1	1855	5231
1	1832	5232
1	1787	5233
1	1746	5234
1	1691	5235
1	1632	5236
1	1585	5237
1	1556	5238
1	1551	5239
1	1559	5240
1	1589	5241
1	1632	5242
1	1686	5243
1	1737	5244
1	1798	5245
1	1857	5246
1	1905	5247
1	1935	5248
1	1953	5249
1	1960	5250
1	1966	5251
1	1964	5252
1	1964	5253
1	1956	5254
1	1933	5255
1	1898	5256
1	1857	5257
1	1791	5258
1	1751	5259
1	1707	5260
1	1670	5261
1	1651	5262
1	1652	5263
1	1667	5264
1	1699	5265
1	1742	5266
1	1793	5267
1	1843	5268
1	1871	5269
1	1893	5270
1	1900	5271
1	1898	5272
1	1873	5273
1	1843	5274
1	1788	5275
1	1734	5276
1	1697	5277
1	1670	5278
1	1656	5279
1	1648	5280
1	1656	5281
1	1665	5282
1	1687	5283
1	1721	5284
1	1767	5285
1	1818	5286
1	1862	5287
1	1891	5288
1	1895	5289
1	1895	5290
1	1881	5291
1	1856	5292
1	1827	5293
1	1790	5294
1	1743	5295
1	1695	5296
1	1652	5297
1	1626	5298
1	1615	5299
1	1613	5300
1	1625	5301
1	1636	5302
1	1654	5303
1	1673	5304
1	1700	5305
1	1737	5306
1	1782	5307
1	1841	5308
1	1886	5309
1	1922	5310
1	1937	5311
1	1930	5312
1	1908	5313
1	1868	5314
1	1817	5315
1	1753	5316
1	1695	5317
1	1626	5318
1	1593	5319
1	1566	5320
1	1556	5321
1	1569	5322
1	1599	5323
1	1634	5324
1	1680	5325
1	1726	5326
1	1778	5327
1	1832	5328
1	1877	5329
1	1899	5330
1	1914	5331
1	1922	5332
1	1922	5333
1	1906	5334
1	1885	5335
1	1856	5336
1	1823	5337
1	1775	5338
1	1742	5339
1	1723	5340
1	1712	5341
1	1723	5342
1	1741	5343
1	1779	5344
1	1829	5345
1	1881	5346
1	1927	5347
1	1962	5348
1	1971	5349
1	1968	5350
1	1953	5351
1	1937	5352
1	1917	5353
1	1883	5354
1	1835	5355
1	1775	5356
1	1718	5357
1	1672	5358
1	1636	5359
1	1539	5380
1	1541	5381
1	1564	5382
1	1603	5383
1	1644	5384
1	1690	5385
1	1734	5386
1	1774	5387
1	1809	5388
1	1818	5389
1	1817	5390
1	1798	5391
1	1775	5392
1	1749	5393
1	1726	5394
1	1693	5395
1	1660	5396
1	1634	5397
1	1618	5398
1	1609	5399
1	1616	5360
1	1611	5361
1	1631	5362
1	1670	5363
1	1710	5364
1	1764	5365
1	1824	5366
1	1872	5367
1	1919	5368
1	1935	5369
1	1938	5370
1	1922	5371
1	1901	5372
1	1860	5373
1	1813	5374
1	1747	5375
1	1688	5376
1	1638	5377
1	1585	5378
1	1557	5379
1	1615	5400
1	1634	5401
1	1659	5402
1	1682	5403
1	1705	5404
1	1731	5405
1	1764	5406
1	1798	5407
1	1822	5408
1	1822	5409
1	1816	5410
1	1787	5411
1	1753	5412
1	1712	5413
1	1664	5414
1	1611	5415
1	1571	5416
1	1540	5417
1	1520	5418
1	1512	5419
1	1521	5420
1	1549	5421
1	1592	5422
1	1652	5423
1	1710	5424
1	1787	5425
1	1854	5426
1	1903	5427
1	1947	5428
1	1969	5429
1	1971	5430
1	1936	5431
1	1895	5432
1	1818	5433
1	1770	5434
1	1712	5435
1	1648	5436
1	1592	5437
1	1538	5438
1	1497	5439
1	1644	5460
1	1625	5461
1	1628	5462
1	1647	5463
1	1674	5464
1	1696	5465
1	1714	5466
1	1736	5467
1	1749	5468
1	1752	5469
1	1753	5470
1	1754	5471
1	1751	5472
1	1731	5473
1	1712	5474
1	1679	5475
1	1645	5476
1	1611	5477
1	1581	5478
1	1554	5479
1	1476	5440
1	1487	5441
1	1521	5442
1	1566	5443
1	1620	5444
1	1674	5445
1	1719	5446
1	1764	5447
1	1790	5448
1	1802	5449
1	1813	5450
1	1812	5451
1	1798	5452
1	1766	5453
1	1749	5454
1	1727	5455
1	1710	5456
1	1695	5457
1	1675	5458
1	1661	5459
1	1539	5480
1	1545	5481
1	1564	5482
1	1595	5483
1	1630	5484
1	1683	5485
1	1734	5486
1	1778	5487
1	1803	5488
1	1824	5489
1	1823	5490
1	1813	5491
1	1791	5492
1	1780	5493
1	1775	5494
1	1783	5495
1	1800	5496
1	1831	5497
1	1869	5498
1	1895	5499
1	1934	5500
1	1985	5501
1	2042	5502
1	2094	5503
1	2160	5504
1	2219	5505
1	2287	5506
1	2346	5507
1	2397	5508
1	2439	5509
1	2467	5510
1	2480	5511
1	2481	5512
1	2456	5513
1	2423	5514
1	2374	5515
1	2316	5516
1	2261	5517
1	2188	5518
1	2141	5519
1	2100	5520
1	2070	5521
1	2052	5522
1	2035	5523
1	2022	5524
1	1994	5525
1	1969	5526
1	1943	5527
1	1908	5528
1	1893	5529
1	1880	5530
1	1868	5531
1	1845	5532
1	1810	5533
1	1760	5534
1	1712	5535
1	1660	5536
1	1613	5537
1	1583	5538
1	1572	5539
1	1585	5540
1	1625	5541
1	1675	5542
1	1728	5543
1	1764	5544
1	1800	5545
1	1841	5546
1	1887	5547
1	1917	5548
1	1937	5549
1	1936	5550
1	1922	5551
1	1885	5552
1	1832	5553
1	1760	5554
1	1695	5555
1	1634	5556
1	1576	5557
1	1507	5558
1	1476	5559
1	1454	5560
1	1459	5561
1	1489	5562
1	1530	5563
1	1593	5564
1	1659	5565
1	1721	5566
1	1773	5567
1	1813	5568
1	1832	5569
1	1843	5570
1	1841	5571
1	1822	5572
1	1777	5573
1	1747	5574
1	1701	5575
1	1656	5576
1	1611	5577
1	1563	5578
1	1529	5579
1	1496	5600
1	1477	5601
1	1477	5602
1	1507	5603
1	1547	5604
1	1594	5605
1	1656	5606
1	1733	5607
1	1796	5608
1	1851	5609
1	1886	5610
1	1895	5611
1	1884	5612
1	1839	5613
1	1782	5614
1	1724	5615
1	1670	5616
1	1625	5617
1	1584	5618
1	1555	5619
1	1538	5600
1	1539	5601
1	1555	5602
1	1587	5603
1	1624	5604
1	1681	5605
1	1741	5606
1	1816	5607
1	1869	5608
1	1908	5609
1	1913	5610
1	1901	5611
1	1882	5612
1	1857	5613
1	1827	5614
1	1791	5615
1	1756	5616
1	1733	5617
1	1720	5618
1	1714	5619
1	1720	5620
1	1734	5621
1	1751	5622
1	1764	5623
1	1797	5624
1	1835	5625
1	1867	5626
1	1890	5627
1	1911	5628
1	1921	5629
1	1898	5630
1	1872	5631
1	1836	5632
1	1787	5633
1	1728	5634
1	1665	5635
1	1608	5636
1	1557	5637
1	1512	5638
1	1490	5639
1	1503	5640
1	1530	5641
1	1581	5642
1	1634	5643
1	1687	5644
1	1742	5645
1	1783	5646
1	1818	5647
1	1841	5648
1	1842	5649
1	1835	5650
1	1816	5651
1	1777	5652
1	1725	5653
1	1679	5654
1	1620	5655
1	1559	5656
1	1508	5657
1	1479	5658
1	1476	5659
1	1489	5660
1	1517	5661
1	1555	5662
1	1608	5663
1	1665	5664
1	1723	5665
1	1767	5666
1	1809	5667
1	1842	5668
1	1875	5669
1	1898	5670
1	1908	5671
1	1910	5672
1	1904	5673
1	1894	5674
1	1869	5675
1	1842	5676
1	1796	5677
1	1760	5678
1	1725	5679
1	1704	5680
1	1688	5681
1	1686	5682
1	1697	5683
1	1726	5684
1	1760	5685
1	1796	5686
1	1843	5687
1	1881	5688
1	1917	5689
1	1948	5690
1	1965	5691
1	1968	5692
1	1961	5693
1	1935	5694
1	1907	5695
1	1877	5696
1	1852	5697
1	1832	5698
1	1836	5699
1	1845	5700
1	1869	5701
1	1900	5702
1	1934	5703
1	1974	5704
1	2012	5705
1	2035	5706
1	2052	5707
1	2057	5708
1	2049	5709
1	2035	5710
1	2000	5711
1	1949	5712
1	1891	5713
1	1836	5714
1	1776	5715
1	1736	5716
1	1703	5717
1	1679	5718
1	1660	5719
1	1655	5720
1	1661	5721
1	1684	5722
1	1713	5723
1	1742	5724
1	1787	5725
1	1836	5726
1	1884	5727
1	1926	5728
1	1967	5729
1	1984	5730
1	1988	5731
1	1985	5732
1	1968	5733
1	1934	5734
1	1895	5735
1	1847	5736
1	1799	5737
1	1764	5738
1	1738	5739
1	1771	5760
1	1770	5761
1	1775	5762
1	1791	5763
1	1823	5764
1	1856	5765
1	1893	5766
1	1918	5767
1	1937	5768
1	1924	5769
1	1899	5770
1	1863	5771
1	1817	5772
1	1762	5773
1	1713	5774
1	1662	5775
1	1618	5776
1	1579	5777
1	1527	5778
1	1481	5779
1	1726	5740
1	1723	5741
1	1729	5742
1	1741	5743
1	1768	5744
1	1817	5745
1	1848	5746
1	1886	5747
1	1906	5748
1	1909	5749
1	1900	5750
1	1887	5751
1	1873	5752
1	1865	5753
1	1843	5754
1	1816	5755
1	1789	5756
1	1777	5757
1	1773	5758
1	1776	5759
1	1459	5780
1	1455	5781
1	1464	5782
1	1489	5783
1	1517	5784
1	1564	5785
1	1618	5786
1	1675	5787
1	1717	5788
1	1757	5789
1	1773	5790
1	1772	5791
1	1757	5792
1	1734	5793
1	1703	5794
1	1668	5795
1	1634	5796
1	1597	5797
1	1568	5798
1	1530	5799
1	1502	5800
1	1476	5801
1	1450	5802
1	1437	5803
1	1440	5804
1	1449	5805
1	1465	5806
1	1482	5807
1	1498	5808
1	1505	5809
1	1506	5810
1	1508	5811
1	1515	5812
1	1521	5813
1	1521	5814
1	1524	5815
1	1526	5816
1	1529	5817
1	1531	5818
1	1542	5819
1	1548	5820
1	1555	5821
1	1572	5822
1	1602	5823
1	1631	5824
1	1648	5825
1	1656	5826
1	1659	5827
1	1667	5828
1	1665	5829
1	1664	5830
1	1672	5831
1	1679	5832
1	1675	5833
1	1663	5834
1	1620	5835
1	1559	5836
1	1503	5837
1	1449	5838
1	1409	5839
1	1422	5860
1	1422	5861
1	1436	5862
1	1463	5863
1	1503	5864
1	1544	5865
1	1589	5866
1	1629	5867
1	1656	5868
1	1661	5869
1	1656	5870
1	1636	5871
1	1607	5872
1	1566	5873
1	1511	5874
1	1456	5875
1	1410	5876
1	1363	5877
1	1323	5878
1	1304	5879
1	1293	5880
1	1293	5881
1	1306	5882
1	1333	5883
1	1379	5884
1	1445	5885
1	1512	5886
1	1579	5887
1	1620	5888
1	1635	5889
1	1634	5890
1	1610	5891
1	1581	5892
1	1555	5893
1	1542	5894
1	1529	5895
1	1517	5896
1	1508	5897
1	1503	5898
1	1498	5899
1	1382	5840
1	1374	5841
1	1381	5842
1	1400	5843
1	1425	5844
1	1472	5845
1	1517	5846
1	1564	5847
1	1605	5848
1	1629	5849
1	1646	5850
1	1656	5851
1	1654	5852
1	1639	5853
1	1620	5854
1	1587	5855
1	1549	5856
1	1507	5857
1	1472	5858
1	1437	5859
1	1498	5900
1	1501	5901
1	1508	5902
1	1530	5903
1	1544	5904
1	1567	5905
1	1589	5906
1	1606	5907
1	1610	5908
1	1619	5909
1	1616	5910
1	1608	5911
1	1596	5912
1	1581	5913
1	1569	5914
1	1553	5915
1	1529	5916
1	1511	5917
1	1502	5918
1	1490	5919
1	1487	5920
1	1490	5921
1	1497	5922
1	1507	5923
1	1521	5924
1	1535	5925
1	1555	5926
1	1589	5927
1	1625	5928
1	1669	5929
1	1708	5930
1	1731	5931
1	1736	5932
1	1719	5933
1	1686	5934
1	1638	5935
1	1594	5936
1	1544	5937
1	1492	5938
1	1438	5939
1	1407	5940
1	1398	5941
1	1408	5942
1	1424	5943
1	1443	5944
1	1471	5945
1	1503	5946
1	1538	5947
1	1576	5948
1	1593	5949
1	1596	5950
1	1590	5951
1	1569	5952
1	1531	5953
1	1495	5954
1	1450	5955
1	1412	5956
1	1372	5957
1	1347	5958
1	1341	5959
1	1341	5960
1	1346	5961
1	1355	5962
1	1372	5963
1	1396	5964
1	1433	5965
1	1479	5966
1	1528	5967
1	1563	5968
1	1589	5969
1	1607	5970
1	1620	5971
1	1625	5972
1	1616	5973
1	1598	5974
1	1569	5975
1	1521	5976
1	1472	5977
1	1427	5978
1	1384	5979
1	1359	5980
1	1354	5981
1	1363	5982
1	1384	5983
1	1430	5984
1	1481	5985
1	1544	5986
1	1607	5987
1	1658	5988
1	1694	5989
1	1715	5990
1	1720	5991
1	1721	5992
1	1711	5993
1	1687	5994
1	1659	5995
1	1616	5996
1	1571	5997
1	1533	5998
1	1503	5999
1	1469	6000
1	1436	6001
1	1404	6002
1	1390	6003
1	1394	6004
1	1423	6005
1	1465	6006
1	1521	6007
1	1580	6008
1	1610	6009
1	1634	6010
1	1637	6011
1	1631	6012
1	1615	6013
1	1613	6014
1	1607	6015
1	1593	6016
1	1579	6017
1	1555	6018
1	1528	6019
1	1492	6020
1	1458	6021
1	1431	6022
1	1423	6023
1	1424	6024
1	1442	6025
1	1465	6026
1	1490	6027
1	1521	6028
1	1550	6029
1	1555	6030
1	1552	6031
1	1533	6032
1	1501	6033
1	1474	6034
1	1450	6035
1	1428	6036
1	1409	6037
1	1394	6038
1	1377	6039
1	1373	6040
1	1384	6041
1	1411	6042
1	1440	6043
1	1473	6044
1	1523	6045
1	1557	6046
1	1599	6047
1	1623	6048
1	1635	6049
1	1637	6050
1	1633	6051
1	1618	6052
1	1603	6053
1	1580	6054
1	1559	6055
1	1545	6056
1	1535	6057
1	1528	6058
1	1529	6059
1	1531	6060
1	1542	6061
1	1546	6062
1	1535	6063
1	1523	6064
1	1512	6065
1	1510	6066
1	1517	6067
1	1530	6068
1	1535	6069
1	1536	6070
1	1529	6071
1	1518	6072
1	1508	6073
1	1507	6074
1	1498	6075
1	1489	6076
1	1477	6077
1	1474	6078
1	1471	6079
1	1472	6080
1	1476	6081
1	1484	6082
1	1490	6083
1	1499	6084
1	1517	6085
1	1538	6086
1	1561	6087
1	1587	6088
1	1606	6089
1	1593	6090
1	1586	6091
1	1571	6092
1	1551	6093
1	1525	6094
1	1494	6095
1	1463	6096
1	1431	6097
1	1400	6098
1	1369	6099
1	1350	6100
1	1358	6101
1	1377	6102
1	1413	6103
1	1456	6104
1	1492	6105
1	1524	6106
1	1546	6107
1	1567	6108
1	1587	6109
1	1607	6110
1	1622	6111
1	1618	6112
1	1599	6113
1	1565	6114
1	1529	6115
1	1491	6116
1	1450	6117
1	1415	6118
1	1400	6119
1	1397	6120
1	1400	6121
1	1409	6122
1	1424	6123
1	1452	6124
1	1494	6125
1	1544	6126
1	1602	6127
1	1660	6128
1	1688	6129
1	1712	6130
1	1718	6131
1	1698	6132
1	1654	6133
1	1609	6134
1	1548	6135
1	1487	6136
1	1440	6137
1	1398	6138
1	1356	6139
1	1323	6140
1	1313	6141
1	1322	6142
1	1363	6143
1	1424	6144
1	1503	6145
1	1584	6146
1	1654	6147
1	1706	6148
1	1728	6149
1	1739	6150
1	1721	6151
1	1674	6152
1	1619	6153
1	1558	6154
1	1510	6155
1	1476	6156
1	1443	6157
1	1408	6158
1	1374	6159
1	1363	6160
1	1350	6161
1	1346	6162
1	1353	6163
1	1382	6164
1	1422	6165
1	1468	6166
1	1516	6167
1	1559	6168
1	1598	6169
1	1633	6170
1	1651	6171
1	1662	6172
1	1670	6173
1	1660	6174
1	1646	6175
1	1613	6176
1	1571	6177
1	1527	6178
1	1501	6179
1	1477	6180
1	1464	6181
1	1466	6182
1	1478	6183
1	1493	6184
1	1512	6185
1	1531	6186
1	1548	6187
1	1562	6188
1	1567	6189
1	1575	6190
1	1579	6191
1	1574	6192
1	1562	6193
1	1539	6194
1	1507	6195
1	1476	6196
1	1455	6197
1	1443	6198
1	1445	6199
1	1458	6200
1	1488	6201
1	1520	6202
1	1553	6203
1	1575	6204
1	1602	6205
1	1632	6206
1	1651	6207
1	1660	6208
1	1669	6209
1	1670	6210
1	1659	6211
1	1652	6212
1	1639	6213
1	1621	6214
1	1594	6215
1	1563	6216
1	1531	6217
1	1503	6218
1	1478	6219
1	1467	6220
1	1466	6221
1	1476	6222
1	1492	6223
1	1518	6224
1	1554	6225
1	1591	6226
1	1625	6227
1	1659	6228
1	1685	6229
1	1685	6230
1	1667	6231
1	1631	6232
1	1581	6233
1	1529	6234
1	1479	6235
1	1438	6236
1	1406	6237
1	1382	6238
1	1384	6239
1	1406	6240
1	1440	6241
1	1490	6242
1	1529	6243
1	1562	6244
1	1593	6245
1	1616	6246
1	1639	6247
1	1656	6248
1	1652	6249
1	1643	6250
1	1616	6251
1	1571	6252
1	1513	6253
1	1450	6254
1	1375	6255
1	1308	6256
1	1247	6257
1	1206	6258
1	1189	6259
1	1212	6260
1	1258	6261
1	1319	6262
1	1384	6263
1	1451	6264
1	1520	6265
1	1583	6266
1	1643	6267
1	1697	6268
1	1742	6269
1	1766	6270
1	1769	6271
1	1757	6272
1	1731	6273
1	1695	6274
1	1652	6275
1	1615	6276
1	1575	6277
1	1530	6278
1	1491	6279
1	1463	6280
1	1440	6281
1	1432	6282
1	1438	6283
1	1459	6284
1	1476	6285
1	1485	6286
1	1488	6287
1	1481	6288
1	1466	6289
1	1447	6290
1	1420	6291
1	1400	6292
1	1382	6293
1	1371	6294
1	1357	6295
1	1340	6296
1	1325	6297
1	1319	6298
1	1333	6299
1	1355	6300
1	1397	6301
1	1441	6302
1	1499	6303
1	1562	6304
1	1628	6305
1	1679	6306
1	1712	6307
1	1729	6308
1	1713	6309
1	1685	6310
1	1639	6311
1	1587	6312
1	1533	6313
1	1489	6314
1	1451	6315
1	1428	6316
1	1404	6317
1	1380	6318
1	1372	6319
1	1373	6320
1	1383	6321
1	1404	6322
1	1430	6323
1	1443	6324
1	1463	6325
1	1489	6326
1	1520	6327
1	1555	6328
1	1598	6329
1	1615	6330
1	1616	6331
1	1620	6332
1	1602	6333
1	1572	6334
1	1535	6335
1	1499	6336
1	1467	6337
1	1449	6338
1	1438	6339
1	1371	6360
1	1395	6361
1	1430	6362
1	1468	6363
1	1512	6364
1	1569	6365
1	1626	6366
1	1683	6367
1	1731	6368
1	1760	6369
1	1787	6370
1	1814	6371
1	1836	6372
1	1856	6373
1	1882	6374
1	1883	6375
1	1880	6376
1	1873	6377
1	1866	6378
1	1859	6379
1	1437	6340
1	1449	6341
1	1459	6342
1	1476	6343
1	1497	6344
1	1517	6345
1	1538	6346
1	1551	6347
1	1553	6348
1	1543	6349
1	1539	6350
1	1540	6351
1	1542	6352
1	1543	6353
1	1526	6354
1	1490	6355
1	1448	6356
1	1402	6357
1	1369	6358
1	1361	6359
1	1860	6380
1	1875	6381
1	1906	6382
1	1943	6383
1	1976	6384
1	2027	6385
1	2088	6386
1	2140	6387
1	2179	6388
1	2210	6389
1	2207	6390
1	2192	6391
1	2156	6392
1	2109	6393
1	2052	6394
1	1980	6395
1	1898	6396
1	1799	6397
1	1692	6398
1	1586	6399
1	1503	6400
1	1450	6401
1	1420	6402
1	1404	6403
1	1413	6404
1	1423	6405
1	1438	6406
1	1469	6407
1	1513	6408
1	1555	6409
1	1595	6410
1	1625	6411
1	1646	6412
1	1647	6413
1	1631	6414
1	1607	6415
1	1585	6416
1	1564	6417
1	1542	6418
1	1526	6419
1	1490	6420
1	1458	6421
1	1436	6422
1	1422	6423
1	1411	6424
1	1411	6425
1	1422	6426
1	1435	6427
1	1450	6428
1	1468	6429
1	1482	6430
1	1494	6431
1	1499	6432
1	1481	6433
1	1467	6434
1	1439	6435
1	1410	6436
1	1384	6437
1	1357	6438
1	1332	6439
1	1314	6440
1	1304	6441
1	1312	6442
1	1334	6443
1	1370	6444
1	1420	6445
1	1469	6446
1	1521	6447
1	1561	6448
1	1587	6449
1	1587	6450
1	1574	6451
1	1553	6452
1	1520	6453
1	1476	6454
1	1430	6455
1	1396	6456
1	1369	6457
1	1362	6458
1	1369	6459
1	1394	6460
1	1427	6461
1	1467	6462
1	1507	6463
1	1553	6464
1	1592	6465
1	1643	6466
1	1688	6467
1	1724	6468
1	1750	6469
1	1764	6470
1	1773	6471
1	1773	6472
1	1757	6473
1	1716	6474
1	1661	6475
1	1596	6476
1	1530	6477
1	1476	6478
1	1445	6479
1	1420	6480
1	1412	6481
1	1423	6482
1	1447	6483
1	1484	6484
1	1529	6485
1	1580	6486
1	1620	6487
1	1651	6488
1	1669	6489
1	1668	6490
1	1646	6491
1	1607	6492
1	1571	6493
1	1542	6494
1	1518	6495
1	1508	6496
1	1500	6497
1	1490	6498
1	1472	6499
1	1450	6500
1	1437	6501
1	1436	6502
1	1435	6503
1	1435	6504
1	1452	6505
1	1488	6506
1	1527	6507
1	1567	6508
1	1607	6509
1	1629	6510
1	1630	6511
1	1618	6512
1	1599	6513
1	1575	6514
1	1530	6515
1	1481	6516
1	1428	6517
1	1375	6518
1	1323	6519
1	1585	6540
1	1564	6541
1	1566	6542
1	1581	6543
1	1616	6544
1	1663	6545
1	1713	6546
1	1764	6547
1	1817	6548
1	1849	6549
1	1869	6550
1	1875	6551
1	1869	6552
1	1855	6553
1	1829	6554
1	1780	6555
1	1736	6556
1	1692	6557
1	1658	6558
1	1628	6559
1	1287	6520
1	1260	6521
1	1252	6522
1	1269	6523
1	1319	6524
1	1381	6525
1	1450	6526
1	1521	6527
1	1581	6528
1	1630	6529
1	1660	6530
1	1675	6531
1	1688	6532
1	1687	6533
1	1685	6534
1	1688	6535
1	1686	6536
1	1675	6537
1	1649	6538
1	1620	6539
1	1607	6560
1	1600	6561
1	1603	6562
1	1604	6563
1	1594	6564
1	1607	6565
1	1634	6566
1	1677	6567
1	1727	6568
1	1775	6569
1	1803	6570
1	1822	6571
1	1823	6572
1	1817	6573
1	1811	6574
1	1791	6575
1	1770	6576
1	1741	6577
1	1703	6578
1	1654	6579
1	1616	6580
1	1594	6581
1	1592	6582
1	1605	6583
1	1632	6584
1	1660	6585
1	1694	6586
1	1729	6587
1	1757	6588
1	1779	6589
1	1787	6590
1	1777	6591
1	1757	6592
1	1733	6593
1	1695	6594
1	1661	6595
1	1625	6596
1	1590	6597
1	1548	6598
1	1512	6599
1	1485	6600
1	1482	6601
1	1492	6602
1	1517	6603
1	1554	6604
1	1611	6605
1	1679	6606
1	1743	6607
1	1809	6608
1	1847	6609
1	1872	6610
1	1885	6611
1	1878	6612
1	1855	6613
1	1827	6614
1	1791	6615
1	1751	6616
1	1703	6617
1	1655	6618
1	1608	6619
1	1580	6620
1	1568	6621
1	1580	6622
1	1606	6623
1	1639	6624
1	1688	6625
1	1739	6626
1	1791	6627
1	1835	6628
1	1859	6629
1	1853	6630
1	1838	6631
1	1817	6632
1	1776	6633
1	1736	6634
1	1682	6635
1	1619	6636
1	1558	6637
1	1512	6638
1	1485	6639
1	1477	6640
1	1490	6641
1	1506	6642
1	1535	6643
1	1568	6644
1	1600	6645
1	1634	6646
1	1675	6647
1	1701	6648
1	1721	6649
1	1728	6650
1	1724	6651
1	1717	6652
1	1699	6653
1	1664	6654
1	1629	6655
1	1584	6656
1	1533	6657
1	1477	6658
1	1438	6659
1	1408	6660
1	1395	6661
1	1399	6662
1	1417	6663
1	1437	6664
1	1450	6665
1	1469	6666
1	1488	6667
1	1502	6668
1	1500	6669
1	1494	6670
1	1479	6671
1	1451	6672
1	1416	6673
1	1372	6674
1	1332	6675
1	1294	6676
1	1267	6677
1	1242	6678
1	1228	6679
1	1222	6680
1	1228	6681
1	1248	6682
1	1280	6683
1	1312	6684
1	1346	6685
1	1384	6686
1	1431	6687
1	1464	6688
1	1485	6689
1	1482	6690
1	1476	6691
1	1456	6692
1	1433	6693
1	1404	6694
1	1374	6695
1	1346	6696
1	1322	6697
1	1305	6698
1	1284	6699
1	1275	6700
1	1286	6701
1	1325	6702
1	1381	6703
1	1445	6704
1	1494	6705
1	1539	6706
1	1574	6707
1	1594	6708
1	1604	6709
1	1607	6710
1	1598	6711
1	1582	6712
1	1553	6713
1	1508	6714
1	1476	6715
1	1451	6716
1	1436	6717
1	1422	6718
1	1423	6719
1	1435	6720
1	1452	6721
1	1476	6722
1	1503	6723
1	1533	6724
1	1572	6725
1	1607	6726
1	1635	6727
1	1656	6728
1	1660	6729
1	1660	6730
1	1647	6731
1	1621	6732
1	1581	6733
1	1541	6734
1	1487	6735
1	1424	6736
1	1363	6737
1	1302	6738
1	1247	6739
1	1202	6740
1	1168	6741
1	1145	6742
1	1144	6743
1	1168	6744
1	1203	6745
1	1243	6746
1	1292	6747
1	1341	6748
1	1395	6749
1	1443	6750
1	1494	6751
1	1531	6752
1	1534	6753
1	1514	6754
1	1489	6755
1	1464	6756
1	1432	6757
1	1400	6758
1	1362	6759
1	1335	6760
1	1320	6761
1	1319	6762
1	1327	6763
1	1367	6764
1	1415	6765
1	1462	6766
1	1503	6767
1	1534	6768
1	1557	6769
1	1569	6770
1	1580	6771
1	1584	6772
1	1582	6773
1	1557	6774
1	1521	6775
1	1476	6776
1	1426	6777
1	1382	6778
1	1353	6779
1	1325	6780
1	1307	6781
1	1301	6782
1	1305	6783
1	1323	6784
1	1359	6785
1	1416	6786
1	1478	6787
1	1546	6788
1	1596	6789
1	1634	6790
1	1652	6791
1	1652	6792
1	1636	6793
1	1617	6794
1	1582	6795
1	1541	6796
1	1489	6797
1	1438	6798
1	1400	6799
1	1377	6800
1	1372	6801
1	1376	6802
1	1396	6803
1	1413	6804
1	1440	6805
1	1476	6806
1	1508	6807
1	1539	6808
1	1572	6809
1	1596	6810
1	1610	6811
1	1607	6812
1	1585	6813
1	1553	6814
1	1511	6815
1	1472	6816
1	1424	6817
1	1367	6818
1	1309	6819
1	1267	6820
1	1251	6821
1	1259	6822
1	1284	6823
1	1323	6824
1	1372	6825
1	1436	6826
1	1504	6827
1	1573	6828
1	1629	6829
1	1648	6830
1	1642	6831
1	1607	6832
1	1555	6833
1	1494	6834
1	1429	6835
1	1367	6836
1	1313	6837
1	1271	6838
1	1258	6839
1	1263	6840
1	1279	6841
1	1319	6842
1	1358	6843
1	1406	6844
1	1454	6845
1	1502	6846
1	1540	6847
1	1566	6848
1	1577	6849
1	1582	6850
1	1577	6851
1	1560	6852
1	1544	6853
1	1529	6854
1	1510	6855
1	1490	6856
1	1475	6857
1	1454	6858
1	1446	6859
1	1442	6860
1	1451	6861
1	1476	6862
1	1503	6863
1	1529	6864
1	1553	6865
1	1571	6866
1	1587	6867
1	1607	6868
1	1620	6869
1	1612	6870
1	1593	6871
1	1557	6872
1	1521	6873
1	1481	6874
1	1445	6875
1	1412	6876
1	1384	6877
1	1373	6878
1	1360	6879
1	1355	6880
1	1361	6881
1	1381	6882
1	1409	6883
1	1437	6884
1	1474	6885
1	1510	6886
1	1543	6887
1	1571	6888
1	1590	6889
1	1599	6890
1	1606	6891
1	1597	6892
1	1572	6893
1	1528	6894
1	1476	6895
1	1424	6896
1	1374	6897
1	1338	6898
1	1314	6899
1	1293	6900
1	1286	6901
1	1293	6902
1	1319	6903
1	1369	6904
1	1432	6905
1	1490	6906
1	1535	6907
1	1566	6908
1	1582	6909
1	1606	6910
1	1626	6911
1	1631	6912
1	1625	6913
1	1613	6914
1	1586	6915
1	1548	6916
1	1494	6917
1	1429	6918
1	1364	6919
1	1309	6920
1	1284	6921
1	1286	6922
1	1310	6923
1	1346	6924
1	1400	6925
1	1462	6926
1	1513	6927
1	1547	6928
1	1579	6929
1	1599	6930
1	1615	6931
1	1634	6932
1	1631	6933
1	1621	6934
1	1594	6935
1	1557	6936
1	1520	6937
1	1499	6938
1	1485	6939
1	1479	6940
1	1476	6941
1	1479	6942
1	1484	6943
1	1503	6944
1	1523	6945
1	1541	6946
1	1570	6947
1	1593	6948
1	1616	6949
1	1636	6950
1	1654	6951
1	1656	6952
1	1641	6953
1	1606	6954
1	1563	6955
1	1518	6956
1	1467	6957
1	1425	6958
1	1403	6959
1	1391	6960
1	1401	6961
1	1431	6962
1	1473	6963
1	1526	6964
1	1584	6965
1	1633	6966
1	1666	6967
1	1693	6968
1	1692	6969
1	1676	6970
1	1646	6971
1	1598	6972
1	1540	6973
1	1490	6974
1	1437	6975
1	1377	6976
1	1337	6977
1	1315	6978
1	1297	6979
1	1284	7000
1	1288	7001
1	1310	7002
1	1346	7003
1	1396	7004
1	1449	7005
1	1500	7006
1	1552	7007
1	1596	7008
1	1632	7009
1	1644	7010
1	1634	7011
1	1608	7012
1	1572	7013
1	1521	7014
1	1465	7015
1	1410	7016
1	1359	7017
1	1323	7018
1	1301	7019
1	1305	7000
1	1331	7001
1	1377	7002
1	1435	7003
1	1498	7004
1	1564	7005
1	1620	7006
1	1661	7007
1	1687	7008
1	1700	7009
1	1697	7010
1	1682	7011
1	1656	7012
1	1625	7013
1	1580	7014
1	1530	7015
1	1480	7016
1	1431	7017
1	1382	7018
1	1355	7019
1	1335	7020
1	1340	7021
1	1372	7022
1	1426	7023
1	1497	7024
1	1579	7025
1	1665	7026
1	1751	7027
1	1834	7028
1	1880	7029
1	1899	7030
1	1886	7031
1	1845	7032
1	1776	7033
1	1711	7034
1	1625	7035
1	1546	7036
1	1492	7037
1	1452	7038
1	1432	7039
1	1428	7040
1	1438	7041
1	1458	7042
1	1485	7043
1	1526	7044
1	1563	7045
1	1589	7046
1	1598	7047
1	1593	7048
1	1580	7049
1	1558	7050
1	1544	7051
1	1532	7052
1	1508	7053
1	1482	7054
1	1459	7055
1	1436	7056
1	1422	7057
1	1420	7058
1	1425	7059
1	1449	7060
1	1484	7061
1	1528	7062
1	1575	7063
1	1616	7064
1	1647	7065
1	1674	7066
1	1686	7067
1	1690	7068
1	1682	7069
1	1670	7070
1	1656	7071
1	1639	7072
1	1620	7073
1	1598	7074
1	1571	7075
1	1539	7076
1	1503	7077
1	1474	7078
1	1454	7079
1	1436	7080
1	1429	7081
1	1436	7082
1	1446	7083
1	1453	7084
1	1476	7085
1	1515	7086
1	1567	7087
1	1622	7088
1	1664	7089
1	1690	7090
1	1697	7091
1	1672	7092
1	1634	7093
1	1602	7094
1	1568	7095
1	1538	7096
1	1515	7097
1	1503	7098
1	1497	7099
1	1503	7100
1	1517	7101
1	1548	7102
1	1582	7103
1	1620	7104
1	1661	7105
1	1711	7106
1	1755	7107
1	1789	7108
1	1812	7109
1	1803	7110
1	1791	7111
1	1764	7112
1	1731	7113
1	1687	7114
1	1644	7115
1	1607	7116
1	1573	7117
1	1543	7118
1	1523	7119
1	1511	7120
1	1506	7121
1	1516	7122
1	1529	7123
1	1554	7124
1	1569	7125
1	1571	7126
1	1556	7127
1	1541	7128
1	1527	7129
1	1503	7130
1	1501	7131
1	1489	7132
1	1464	7133
1	1436	7134
1	1418	7135
1	1411	7136
1	1405	7137
1	1404	7138
1	1418	7139
1	1424	7140
1	1431	7141
1	1450	7142
1	1474	7143
1	1505	7144
1	1543	7145
1	1581	7146
1	1622	7147
1	1664	7148
1	1687	7149
1	1697	7150
1	1682	7151
1	1655	7152
1	1616	7153
1	1580	7154
1	1528	7155
1	1472	7156
1	1431	7157
1	1399	7158
1	1375	7159
1	1400	7180
1	1416	7181
1	1448	7182
1	1500	7183
1	1560	7184
1	1621	7185
1	1672	7186
1	1720	7187
1	1761	7188
1	1788	7189
1	1795	7190
1	1778	7191
1	1742	7192
1	1710	7193
1	1670	7194
1	1634	7195
1	1600	7196
1	1561	7197
1	1532	7198
1	1508	7199
1	1372	7160
1	1384	7161
1	1423	7162
1	1467	7163
1	1520	7164
1	1580	7165
1	1631	7166
1	1660	7167
1	1670	7168
1	1660	7169
1	1628	7170
1	1584	7171
1	1541	7172
1	1498	7173
1	1459	7174
1	1431	7175
1	1418	7176
1	1413	7177
1	1411	7178
1	1403	7179
1	1503	7200
1	1513	7201
1	1535	7202
1	1555	7203
1	1566	7204
1	1576	7205
1	1581	7206
1	1595	7207
1	1611	7208
1	1619	7209
1	1622	7210
1	1618	7211
1	1600	7212
1	1573	7213
1	1539	7214
1	1499	7215
1	1452	7216
1	1409	7217
1	1374	7218
1	1355	7219
1	1346	7220
1	1363	7221
1	1396	7222
1	1437	7223
1	1482	7224
1	1539	7225
1	1594	7226
1	1657	7227
1	1723	7228
1	1773	7229
1	1813	7230
1	1826	7231
1	1843	7232
1	1842	7233
1	1850	7234
1	1857	7235
1	1869	7236
1	1881	7237
1	1896	7238
1	1917	7239
1	1947	7240
1	1987	7241
1	2040	7242
1	2093	7243
1	2157	7244
1	2211	7245
1	2263	7246
1	2314	7247
1	2343	7248
1	2359	7249
1	2353	7250
1	2322	7251
1	2267	7252
1	2192	7253
1	2109	7254
1	2027	7255
1	1945	7256
1	1852	7257
1	1741	7258
1	1643	7259
1	1547	7260
1	1476	7261
1	1437	7262
1	1427	7263
1	1440	7264
1	1476	7265
1	1523	7266
1	1581	7267
1	1649	7268
1	1710	7269
1	1770	7270
1	1822	7271
1	1852	7272
1	1854	7273
1	1841	7274
1	1792	7275
1	1738	7276
1	1678	7277
1	1620	7278
1	1574	7279
1	1542	7280
1	1529	7281
1	1526	7282
1	1538	7283
1	1544	7284
1	1561	7285
1	1581	7286
1	1600	7287
1	1625	7288
1	1636	7289
1	1638	7290
1	1626	7291
1	1594	7292
1	1546	7293
1	1485	7294
1	1426	7295
1	1382	7296
1	1361	7297
1	1358	7298
1	1371	7299
1	1407	7300
1	1446	7301
1	1493	7302
1	1539	7303
1	1586	7304
1	1633	7305
1	1675	7306
1	1718	7307
1	1762	7308
1	1799	7309
1	1826	7310
1	1827	7311
1	1796	7312
1	1755	7313
1	1701	7314
1	1639	7315
1	1582	7316
1	1535	7317
1	1513	7318
1	1503	7319
1	1503	7320
1	1502	7321
1	1503	7322
1	1514	7323
1	1525	7324
1	1539	7325
1	1563	7326
1	1594	7327
1	1629	7328
1	1654	7329
1	1681	7330
1	1697	7331
1	1697	7332
1	1683	7333
1	1663	7334
1	1636	7335
1	1599	7336
1	1574	7337
1	1553	7338
1	1544	7339
1	1551	7340
1	1557	7341
1	1573	7342
1	1598	7343
1	1638	7344
1	1684	7345
1	1735	7346
1	1775	7347
1	1810	7348
1	1829	7349
1	1827	7350
1	1818	7351
1	1796	7352
1	1777	7353
1	1751	7354
1	1714	7355
1	1678	7356
1	1634	7357
1	1590	7358
1	1544	7359
1	1508	7360
1	1485	7361
1	1492	7362
1	1521	7363
1	1576	7364
1	1632	7365
1	1688	7366
1	1746	7367
1	1803	7368
1	1854	7369
1	1885	7370
1	1884	7371
1	1858	7372
1	1821	7373
1	1773	7374
1	1737	7375
1	1683	7376
1	1615	7377
1	1542	7378
1	1483	7379
1	1436	7380
1	1417	7381
1	1422	7382
1	1437	7383
1	1476	7384
1	1521	7385
1	1571	7386
1	1626	7387
1	1675	7388
1	1716	7389
1	1746	7390
1	1766	7391
1	1782	7392
1	1787	7393
1	1787	7394
1	1767	7395
1	1742	7396
1	1710	7397
1	1670	7398
1	1639	7399
1	1626	7400
1	1629	7401
1	1644	7402
1	1662	7403
1	1686	7404
1	1719	7405
1	1757	7406
1	1791	7407
1	1813	7408
1	1827	7409
1	1832	7410
1	1831	7411
1	1819	7412
1	1803	7413
1	1790	7414
1	1770	7415
1	1751	7416
1	1738	7417
1	1724	7418
1	1710	7419
1	1706	7420
1	1712	7421
1	1734	7422
1	1764	7423
1	1817	7424
1	1862	7425
1	1898	7426
1	1939	7427
1	1966	7428
1	1976	7429
1	1974	7430
1	1949	7431
1	1920	7432
1	1877	7433
1	1842	7434
1	1808	7435
1	1787	7436
1	1776	7437
1	1770	7438
1	1765	7439
1	1764	7440
1	1768	7441
1	1791	7442
1	1814	7443
1	1839	7444
1	1868	7445
1	1895	7446
1	1917	7447
1	1935	7448
1	1944	7449
1	1950	7450
1	1952	7451
1	1947	7452
1	1925	7453
1	1896	7454
1	1852	7455
1	1791	7456
1	1746	7457
1	1715	7458
1	1700	7459
1	1692	7460
1	1690	7461
1	1697	7462
1	1710	7463
1	1731	7464
1	1763	7465
1	1800	7466
1	1843	7467
1	1887	7468
1	1936	7469
1	1970	7470
1	1986	7471
1	1988	7472
1	1970	7473
1	1936	7474
1	1901	7475
1	1866	7476
1	1830	7477
1	1800	7478
1	1773	7479
1	1621	7500
1	1608	7501
1	1607	7502
1	1619	7503
1	1647	7504
1	1688	7505
1	1737	7506
1	1769	7507
1	1789	7508
1	1780	7509
1	1756	7510
1	1720	7511
1	1674	7512
1	1634	7513
1	1610	7514
1	1593	7515
1	1590	7516
1	1589	7517
1	1586	7518
1	1582	7519
1	1760	7500
1	1751	7501
1	1751	7502
1	1773	7503
1	1801	7504
1	1832	7505
1	1867	7506
1	1908	7507
1	1948	7508
1	1980	7509
1	2006	7510
1	2010	7511
1	1989	7512
1	1949	7513
1	1897	7514
1	1845	7515
1	1791	7516
1	1738	7517
1	1687	7518
1	1651	7519
1	1584	7520
1	1590	7521
1	1593	7522
1	1604	7523
1	1624	7524
1	1667	7525
1	1713	7526
1	1752	7527
1	1782	7528
1	1809	7529
1	1812	7530
1	1791	7531
1	1776	7532
1	1738	7533
1	1699	7534
1	1657	7535
1	1606	7536
1	1556	7537
1	1514	7538
1	1494	7539
1	1652	7560
1	1636	7561
1	1622	7562
1	1609	7563
1	1607	7564
1	1611	7565
1	1613	7566
1	1625	7567
1	1638	7568
1	1643	7569
1	1647	7570
1	1644	7571
1	1630	7572
1	1607	7573
1	1586	7574
1	1566	7575
1	1554	7576
1	1546	7577
1	1544	7578
1	1545	7579
1	1555	7580
1	1567	7581
1	1581	7582
1	1594	7583
1	1607	7584
1	1620	7585
1	1634	7586
1	1639	7587
1	1643	7588
1	1652	7589
1	1647	7590
1	1629	7591
1	1597	7592
1	1560	7593
1	1532	7594
1	1512	7595
1	1499	7596
1	1490	7597
1	1488	7598
1	1486	7599
1	1494	7600
1	1517	7601
1	1547	7602
1	1580	7603
1	1620	7604
1	1656	7605
1	1686	7606
1	1720	7607
1	1740	7608
1	1751	7609
1	1759	7610
1	1751	7611
1	1727	7612
1	1701	7613
1	1672	7614
1	1656	7615
1	1639	7616
1	1626	7617
1	1616	7618
1	1615	7619
1	1490	7540
1	1494	7541
1	1499	7542
1	1507	7543
1	1521	7544
1	1535	7545
1	1555	7546
1	1584	7547
1	1607	7548
1	1623	7549
1	1634	7550
1	1641	7551
1	1647	7552
1	1661	7553
1	1673	7554
1	1680	7555
1	1682	7556
1	1684	7557
1	1677	7558
1	1671	7559
1	1609	7620
1	1602	7621
1	1595	7622
1	1603	7623
1	1625	7624
1	1656	7625
1	1683	7626
1	1704	7627
1	1715	7628
1	1715	7629
1	1712	7630
1	1708	7631
1	1695	7632
1	1677	7633
1	1665	7634
1	1646	7635
1	1620	7636
1	1613	7637
1	1610	7638
1	1621	7639
1	1636	7640
1	1654	7641
1	1662	7642
1	1680	7643
1	1690	7644
1	1705	7645
1	1712	7646
1	1712	7647
1	1702	7648
1	1690	7649
1	1686	7650
1	1697	7651
1	1697	7652
1	1686	7653
1	1661	7654
1	1629	7655
1	1585	7656
1	1538	7657
1	1503	7658
1	1476	7659
1	1476	7680
1	1485	7681
1	1515	7682
1	1551	7683
1	1589	7684
1	1613	7685
1	1632	7686
1	1647	7687
1	1666	7688
1	1685	7689
1	1697	7690
1	1703	7691
1	1708	7692
1	1703	7693
1	1682	7694
1	1657	7695
1	1615	7696
1	1570	7697
1	1528	7698
1	1491	7699
1	1467	7680
1	1459	7681
1	1468	7682
1	1490	7683
1	1523	7684
1	1566	7685
1	1610	7686
1	1654	7687
1	1686	7688
1	1712	7689
1	1738	7690
1	1751	7691
1	1755	7692
1	1746	7693
1	1736	7694
1	1707	7695
1	1675	7696
1	1649	7697
1	1634	7698
1	1624	7699
1	1619	7700
1	1625	7701
1	1638	7702
1	1660	7703
1	1681	7704
1	1700	7705
1	1724	7706
1	1746	7707
1	1764	7708
1	1796	7709
1	1827	7710
1	1844	7711
1	1843	7712
1	1822	7713
1	1788	7714
1	1760	7715
1	1731	7716
1	1700	7717
1	1665	7718
1	1633	7719
1	1612	7720
1	1607	7721
1	1607	7722
1	1625	7723
1	1643	7724
1	1664	7725
1	1688	7726
1	1719	7727
1	1740	7728
1	1742	7729
1	1728	7730
1	1687	7731
1	1639	7732
1	1589	7733
1	1537	7734
1	1488	7735
1	1443	7736
1	1401	7737
1	1372	7738
1	1360	7739
1	1368	7740
1	1394	7741
1	1440	7742
1	1490	7743
1	1544	7744
1	1597	7745
1	1641	7746
1	1672	7747
1	1691	7748
1	1690	7749
1	1694	7750
1	1688	7751
1	1679	7752
1	1661	7753
1	1651	7754
1	1630	7755
1	1607	7756
1	1582	7757
1	1566	7758
1	1555	7759
1	1549	7760
1	1556	7761
1	1576	7762
1	1607	7763
1	1631	7764
1	1660	7765
1	1686	7766
1	1716	7767
1	1760	7768
1	1787	7769
1	1803	7770
1	1814	7771
1	1803	7772
1	1778	7773
1	1742	7774
1	1705	7775
1	1670	7776
1	1638	7777
1	1613	7778
1	1593	7779
1	1580	7780
1	1572	7781
1	1580	7782
1	1604	7783
1	1634	7784
1	1672	7785
1	1715	7786
1	1762	7787
1	1813	7788
1	1842	7789
1	1849	7790
1	1843	7791
1	1827	7792
1	1803	7793
1	1777	7794
1	1747	7795
1	1712	7796
1	1683	7797
1	1658	7798
1	1647	7799
1	1634	7800
1	1626	7801
1	1629	7802
1	1638	7803
1	1653	7804
1	1660	7805
1	1656	7806
1	1643	7807
1	1634	7808
1	1625	7809
1	1620	7810
1	1616	7811
1	1607	7812
1	1589	7813
1	1568	7814
1	1533	7815
1	1501	7816
1	1464	7817
1	1433	7818
1	1407	7819
1	1392	7820
1	1381	7821
1	1398	7822
1	1424	7823
1	1458	7824
1	1503	7825
1	1556	7826
1	1611	7827
1	1672	7828
1	1716	7829
1	1743	7830
1	1742	7831
1	1742	7832
1	1733	7833
1	1721	7834
1	1701	7835
1	1677	7836
1	1647	7837
1	1625	7838
1	1611	7839
1	1618	7840
1	1638	7841
1	1665	7842
1	1692	7843
1	1713	7844
1	1733	7845
1	1751	7846
1	1778	7847
1	1791	7848
1	1788	7849
1	1773	7850
1	1755	7851
1	1727	7852
1	1696	7853
1	1660	7854
1	1629	7855
1	1595	7856
1	1566	7857
1	1549	7858
1	1561	7859
1	1585	7860
1	1622	7861
1	1680	7862
1	1746	7863
1	1821	7864
1	1880	7865
1	1921	7866
1	1923	7867
1	1900	7868
1	1852	7869
1	1795	7870
1	1736	7871
1	1669	7872
1	1607	7873
1	1538	7874
1	1482	7875
1	1448	7876
1	1422	7877
1	1403	7878
1	1399	7879
1	1409	7880
1	1425	7881
1	1456	7882
1	1501	7883
1	1541	7884
1	1589	7885
1	1634	7886
1	1673	7887
1	1712	7888
1	1729	7889
1	1718	7890
1	1710	7891
1	1686	7892
1	1659	7893
1	1625	7894
1	1589	7895
1	1556	7896
1	1529	7897
1	1510	7898
1	1500	7899
1	1500	7900
1	1503	7901
1	1518	7902
1	1550	7903
1	1580	7904
1	1611	7905
1	1647	7906
1	1680	7907
1	1701	7908
1	1715	7909
1	1733	7910
1	1749	7911
1	1757	7912
1	1764	7913
1	1751	7914
1	1736	7915
1	1710	7916
1	1675	7917
1	1634	7918
1	1597	7919
1	1564	7920
1	1539	7921
1	1524	7922
1	1523	7923
1	1544	7924
1	1592	7925
1	1647	7926
1	1710	7927
1	1773	7928
1	1831	7929
1	1884	7930
1	1926	7931
1	1957	7932
1	1971	7933
1	1978	7934
1	1967	7935
1	1932	7936
1	1868	7937
1	1794	7938
1	1712	7939
1	1638	7940
1	1576	7941
1	1532	7942
1	1508	7943
1	1499	7944
1	1506	7945
1	1528	7946
1	1554	7947
1	1584	7948
1	1618	7949
1	1650	7950
1	1683	7951
1	1692	7952
1	1688	7953
1	1669	7954
1	1648	7955
1	1629	7956
1	1608	7957
1	1595	7958
1	1580	7959
1	1575	7960
1	1581	7961
1	1606	7962
1	1644	7963
1	1693	7964
1	1730	7965
1	1760	7966
1	1780	7967
1	1788	7968
1	1773	7969
1	1742	7970
1	1697	7971
1	1638	7972
1	1577	7973
1	1529	7974
1	1503	7975
1	1498	7976
1	1494	7977
1	1498	7978
1	1497	7979
1	1503	7980
1	1526	7981
1	1551	7982
1	1582	7983
1	1611	7984
1	1643	7985
1	1677	7986
1	1712	7987
1	1746	7988
1	1757	7989
1	1764	7990
1	1761	7991
1	1736	7992
1	1701	7993
1	1674	7994
1	1642	7995
1	1607	7996
1	1576	7997
1	1555	7998
1	1554	7999
1	1569	8000
1	1605	8000
1	1646	8002
1	1694	8003
1	1737	8004
1	1778	8005
1	1812	8006
1	1817	8007
1	1799	8008
1	1782	8009
1	1754	8010
1	1718	8011
1	1679	8012
1	1622	8013
1	1557	8013
1	1502	8015
1	1454	8016
1	1425	8016
1	1408	8018
1	1382	8019
1	1372	8020
1	1370	8021
1	1384	8022
1	1417	8023
1	1450	8024
1	1488	8025
1	1529	8026
1	1571	8027
1	1607	8028
1	1631	8029
1	1636	8029
1	1631	8031
1	1618	8032
1	1602	8032
1	1582	8034
1	1567	8035
1	1554	8036
1	1551	8037
1	1553	8038
1	1558	8039
1	1561	8040
1	1566	8041
1	1581	8042
1	1595	8043
1	1609	8044
1	1622	8045
1	1630	8045
1	1623	8047
1	1607	8048
1	1581	8048
1	1553	8050
1	1528	8051
1	1494	8052
1	1465	8053
1	1451	8054
1	1435	8055
1	1423	8056
1	1416	8057
1	1411	8058
1	1402	8059
1	1397	8060
1	1396	8061
1	1402	8061
1	1426	8063
1	1454	8064
1	1495	8064
1	1536	8066
1	1577	8067
1	1620	8068
1	1654	8069
1	1687	8070
1	1724	8071
1	1747	8072
1	1760	8073
1	1754	8074
1	1738	8074
1	1715	8076
1	1692	8077
1	1670	8077
1	1638	8079
1	1607	8080
1	1593	8080
1	1592	8082
1	1605	8083
1	1618	8084
1	1642	8085
1	1659	8086
1	1662	8087
1	1661	8088
1	1654	8089
1	1641	8090
1	1625	8090
1	1607	8092
1	1585	8093
1	1556	8093
1	1530	8095
1	1502	8096
1	1474	8096
1	1451	8098
1	1427	8099
1	1415	8100
1	1420	8101
1	1448	8102
1	1508	8103
1	1597	8104
1	1703	8105
1	1817	8106
1	1911	8106
1	1986	8108
1	2028	8109
1	2052	8109
1	2043	8111
1	2022	8112
1	1997	8113
1	1966	8114
1	1945	8115
1	1922	8116
1	1895	8117
1	1874	8118
1	1869	8119
1	1883	8120
1	1913	8121
1	1962	8122
1	2022	8122
1	2076	8124
1	2125	8125
1	2163	8125
1	2195	8127
1	2219	8128
1	2236	8129
1	2236	8130
1	2205	8131
1	2162	8132
1	2102	8133
1	2022	8134
1	1950	8135
1	1882	8136
1	1815	8137
1	1751	8138
1	1697	8138
1	1649	8140
1	1607	8141
1	1581	8141
1	1572	8143
1	1560	8144
1	1555	8145
1	1555	8146
1	1563	8147
1	1578	8148
1	1580	8149
1	1589	8150
1	1596	8151
1	1603	8152
1	1595	8153
1	1577	8154
1	1556	8154
1	1538	8156
1	1517	8157
1	1499	8157
1	1492	8159
1	1498	8160
1	1519	8161
1	1546	8162
1	1581	8163
1	1622	8164
1	1660	8165
1	1697	8166
1	1727	8167
1	1751	8168
1	1759	8169
1	1765	8170
1	1762	8170
1	1744	8172
1	1719	8173
1	1682	8173
1	1636	8175
1	1605	8176
1	1579	8177
1	1556	8178
1	1539	8179
1	1417	8200
1	1449	8201
1	1481	8202
1	1527	8203
1	1580	8204
1	1625	8205
1	1667	8206
1	1711	8207
1	1738	8208
1	1750	8209
1	1746	8210
1	1725	8211
1	1694	8212
1	1647	8213
1	1593	8214
1	1541	8215
1	1486	8216
1	1440	8217
1	1408	8218
1	1391	8219
1	1521	8180
1	1508	8181
1	1508	8182
1	1525	8183
1	1544	8184
1	1572	8185
1	1597	8186
1	1618	8186
1	1621	8188
1	1618	8189
1	1602	8189
1	1579	8191
1	1546	8192
1	1519	8193
1	1485	8194
1	1449	8195
1	1413	8196
1	1395	8197
1	1392	8198
1	1398	8199
1	1377	8220
1	1391	8221
1	1418	8222
1	1461	8223
1	1516	8224
1	1572	8225
1	1625	8226
1	1669	8227
1	1703	8228
1	1721	8229
1	1739	8230
1	1752	8231
1	1750	8232
1	1733	8233
1	1708	8234
1	1662	8235
1	1623	8236
1	1594	8237
1	1568	8238
1	1553	8239
1	1548	8240
1	1554	8241
1	1566	8242
1	1584	8243
1	1592	8244
1	1592	8245
1	1589	8246
1	1595	8247
1	1607	8248
1	1618	8249
1	1611	8250
1	1593	8251
1	1556	8252
1	1520	8253
1	1478	8254
1	1436	8255
1	1400	8256
1	1376	8257
1	1374	8258
1	1384	8259
1	1414	8260
1	1449	8261
1	1498	8262
1	1553	8263
1	1607	8264
1	1657	8265
1	1702	8266
1	1748	8267
1	1790	8268
1	1827	8269
1	1852	8270
1	1859	8271
1	1845	8272
1	1808	8273
1	1744	8274
1	1679	8275
1	1610	8276
1	1543	8277
1	1487	8278
1	1437	8279
1	1407	8280
1	1402	8281
1	1424	8282
1	1466	8283
1	1521	8284
1	1575	8285
1	1613	8286
1	1652	8287
1	1691	8288
1	1727	8289
1	1757	8290
1	1778	8291
1	1790	8292
1	1785	8293
1	1778	8294
1	1757	8295
1	1738	8296
1	1719	8297
1	1701	8298
1	1683	8299
1	1669	8300
1	1657	8301
1	1647	8302
1	1648	8303
1	1655	8304
1	1670	8305
1	1685	8306
1	1698	8307
1	1714	8308
1	1734	8309
1	1738	8310
1	1731	8311
1	1720	8312
1	1706	8313
1	1686	8314
1	1660	8315
1	1634	8316
1	1607	8317
1	1585	8318
1	1567	8319
1	1559	8320
1	1568	8321
1	1592	8322
1	1634	8323
1	1677	8324
1	1716	8325
1	1752	8326
1	1790	8327
1	1828	8328
1	1855	8329
1	1859	8330
1	1843	8331
1	1815	8332
1	1777	8333
1	1751	8334
1	1735	8335
1	1724	8336
1	1713	8337
1	1701	8338
1	1698	8339
1	1710	8340
1	1742	8341
1	1790	8342
1	1827	8343
1	1859	8344
1	1891	8345
1	1922	8346
1	1961	8347
1	1991	8348
1	1997	8349
1	1985	8350
1	1949	8351
1	1896	8352
1	1841	8353
1	1782	8354
1	1734	8355
1	1692	8356
1	1660	8357
1	1634	8358
1	1615	8359
1	1602	8360
1	1605	8361
1	1618	8362
1	1655	8363
1	1686	8364
1	1727	8365
1	1765	8366
1	1803	8367
1	1830	8368
1	1834	8369
1	1823	8370
1	1809	8371
1	1788	8372
1	1760	8373
1	1728	8374
1	1695	8375
1	1660	8376
1	1634	8377
1	1617	8378
1	1593	8379
1	1573	8380
1	1551	8381
1	1536	8382
1	1530	8383
1	1530	8384
1	1540	8385
1	1554	8386
1	1571	8387
1	1585	8388
1	1591	8389
1	1591	8390
1	1581	8391
1	1560	8392
1	1536	8393
1	1512	8394
1	1490	8395
1	1467	8396
1	1449	8397
1	1438	8398
1	1439	8399
1	1438	8400
1	1437	8401
1	1443	8402
1	1457	8403
1	1477	8404
1	1503	8405
1	1533	8406
1	1570	8407
1	1605	8408
1	1610	8409
1	1607	8410
1	1593	8411
1	1574	8412
1	1551	8413
1	1528	8414
1	1502	8415
1	1481	8416
1	1467	8417
1	1455	8418
1	1458	8419
1	1469	8420
1	1496	8421
1	1535	8422
1	1580	8423
1	1610	8424
1	1656	8425
1	1692	8426
1	1718	8427
1	1733	8428
1	1719	8429
1	1691	8430
1	1652	8431
1	1582	8432
1	1542	8433
1	1476	8434
1	1424	8435
1	1359	8436
1	1302	8437
1	1258	8438
1	1233	8439
1	1241	8440
1	1273	8441
1	1320	8442
1	1368	8443
1	1422	8444
1	1465	8445
1	1507	8446
1	1537	8447
1	1567	8448
1	1581	8449
1	1595	8450
1	1608	8451
1	1609	8452
1	1594	8453
1	1558	8454
1	1511	8455
1	1453	8456
1	1398	8457
1	1346	8458
1	1319	8459
1	1298	8460
1	1298	8461
1	1322	8462
1	1355	8463
1	1398	8464
1	1437	8465
1	1477	8466
1	1516	8467
1	1547	8468
1	1566	8469
1	1573	8470
1	1572	8471
1	1562	8472
1	1537	8473
1	1500	8474
1	1469	8475
1	1450	8476
1	1427	8477
1	1415	8478
1	1409	8479
1	1411	8480
1	1418	8481
1	1436	8482
1	1476	8483
1	1519	8484
1	1565	8485
1	1600	8486
1	1625	8487
1	1645	8488
1	1643	8489
1	1642	8490
1	1636	8491
1	1625	8492
1	1604	8493
1	1577	8494
1	1544	8495
1	1517	8496
1	1491	8497
1	1472	8498
1	1442	8499
1	1412	8500
1	1379	8501
1	1372	8502
1	1376	8503
1	1403	8504
1	1435	8505
1	1472	8506
1	1513	8507
1	1546	8508
1	1573	8509
1	1581	8510
1	1571	8511
1	1540	8512
1	1503	8513
1	1466	8514
1	1450	8515
1	1450	8516
1	1453	8517
1	1462	8518
1	1467	8519
1	1246	8540
1	1267	8541
1	1296	8542
1	1348	8543
1	1414	8544
1	1479	8545
1	1544	8546
1	1602	8547
1	1645	8548
1	1679	8549
1	1699	8550
1	1710	8551
1	1693	8552
1	1660	8553
1	1608	8554
1	1548	8555
1	1489	8556
1	1442	8557
1	1409	8558
1	1373	8559
1	1463	8520
1	1463	8521
1	1474	8522
1	1490	8523
1	1508	8524
1	1529	8525
1	1551	8526
1	1574	8527
1	1585	8528
1	1582	8529
1	1567	8530
1	1543	8531
1	1503	8532
1	1458	8533
1	1415	8534
1	1359	8535
1	1330	8536
1	1293	8537
1	1267	8538
1	1247	8539
1	1359	8560
1	1359	8561
1	1373	8562
1	1413	8563
1	1464	8564
1	1520	8565
1	1574	8566
1	1629	8567
1	1676	8568
1	1712	8569
1	1741	8570
1	1760	8571
1	1758	8572
1	1733	8573
1	1685	8574
1	1634	8575
1	1572	8576
1	1512	8577
1	1476	8578
1	1448	8579
1	1425	8580
1	1414	8581
1	1413	8582
1	1424	8583
1	1449	8584
1	1489	8585
1	1533	8586
1	1581	8587
1	1615	8588
1	1634	8589
1	1639	8590
1	1634	8591
1	1616	8592
1	1602	8593
1	1581	8594
1	1556	8595
1	1536	8596
1	1517	8597
1	1494	8598
1	1475	8599
1	1452	8600
1	1440	8601
1	1439	8602
1	1446	8603
1	1450	8604
1	1471	8605
1	1499	8606
1	1535	8607
1	1566	8608
1	1598	8609
1	1620	8610
1	1634	8611
1	1638	8612
1	1631	8613
1	1607	8614
1	1572	8615
1	1533	8616
1	1494	8617
1	1463	8618
1	1436	8619
1	1415	8620
1	1400	8621
1	1384	8622
1	1394	8623
1	1404	8624
1	1422	8625
1	1445	8626
1	1488	8627
1	1533	8628
1	1571	8629
1	1594	8630
1	1596	8631
1	1595	8632
1	1585	8633
1	1571	8634
1	1550	8635
1	1521	8636
1	1502	8637
1	1488	8638
1	1479	8639
1	1479	8640
1	1494	8641
1	1512	8642
1	1541	8643
1	1567	8644
1	1594	8645
1	1629	8646
1	1661	8647
1	1686	8648
1	1686	8649
1	1686	8650
1	1688	8651
1	1690	8652
1	1683	8653
1	1665	8654
1	1638	8655
1	1615	8656
1	1605	8657
1	1600	8658
1	1603	8659
1	1592	8660
1	1581	8661
1	1581	8662
1	1593	8663
1	1603	8664
1	1620	8665
1	1634	8666
1	1649	8667
1	1664	8668
1	1665	8669
1	1669	8670
1	1671	8671
1	1671	8672
1	1659	8673
1	1632	8674
1	1597	8675
1	1556	8676
1	1516	8677
1	1472	8678
1	1433	8679
1	1406	8680
1	1398	8681
1	1411	8682
1	1449	8683
1	1485	8684
1	1519	8685
1	1562	8686
1	1607	8687
1	1644	8688
1	1664	8689
1	1674	8690
1	1663	8691
1	1645	8692
1	1616	8693
1	1579	8694
1	1539	8695
1	1505	8696
1	1476	8697
1	1450	8698
1	1436	8699
1	1424	8700
1	1426	8701
1	1440	8702
1	1459	8703
1	1485	8704
1	1515	8705
1	1544	8706
1	1580	8707
1	1620	8708
1	1655	8709
1	1685	8710
1	1701	8711
1	1702	8712
1	1693	8713
1	1679	8714
1	1647	8715
1	1608	8716
1	1571	8717
1	1533	8718
1	1502	8719
1	1477	8720
1	1464	8721
1	1472	8722
1	1494	8723
1	1530	8724
1	1579	8725
1	1633	8726
1	1696	8727
1	1764	8728
1	1815	8729
1	1839	8730
1	1844	8731
1	1832	8732
1	1817	8733
1	1781	8734
1	1737	8735
1	1686	8736
1	1639	8737
1	1596	8738
1	1555	8739
1	1529	8740
1	1524	8741
1	1537	8742
1	1571	8743
1	1611	8744
1	1648	8745
1	1682	8746
1	1708	8747
1	1734	8748
1	1748	8749
1	1755	8750
1	1755	8751
1	1744	8752
1	1733	8753
1	1697	8754
1	1652	8755
1	1608	8756
1	1575	8757
1	1542	8758
1	1512	8759
1	1486	8760
1	1469	8761
1	1463	8762
1	1472	8763
1	1490	8764
1	1523	8765
1	1557	8766
1	1590	8767
1	1616	8768
1	1634	8769
1	1652	8770
1	1661	8771
1	1660	8772
1	1656	8773
1	1635	8774
1	1607	8775
1	1583	8776
1	1568	8777
1	1555	8778
1	1551	8779
1	1555	8780
1	1575	8781
1	1598	8782
1	1631	8783
1	1661	8784
1	1692	8785
1	1711	8786
1	1715	8787
1	1712	8788
1	1691	8789
1	1660	8790
1	1620	8791
1	1581	8792
1	1537	8793
1	1486	8794
1	1446	8795
1	1418	8796
1	1403	8797
1	1409	8798
1	1428	8799
1	1464	8800
1	1515	8801
1	1579	8802
1	1647	8803
1	1714	8804
1	1773	8805
1	1823	8806
1	1857	8807
1	1886	8808
1	1907	8809
1	1909	8810
1	1890	8811
1	1843	8812
1	1776	8813
1	1703	8814
1	1637	8815
1	1581	8816
1	1537	8817
1	1512	8818
1	1503	8819
1	1594	8840
1	1540	8841
1	1499	8842
1	1464	8843
1	1445	8844
1	1449	8845
1	1472	8846
1	1513	8847
1	1561	8848
1	1608	8849
1	1648	8850
1	1686	8851
1	1710	8852
1	1713	8853
1	1712	8854
1	1692	8855
1	1660	8856
1	1623	8857
1	1583	8858
1	1544	8859
1	1500	8820
1	1507	8821
1	1530	8822
1	1566	8823
1	1611	8824
1	1675	8825
1	1743	8826
1	1812	8827
1	1865	8828
1	1898	8829
1	1922	8830
1	1932	8831
1	1938	8832
1	1934	8833
1	1927	8834
1	1906	8835
1	1862	8836
1	1814	8837
1	1739	8838
1	1663	8839
1	1524	8860
1	1512	8861
1	1511	8862
1	1529	8863
1	1557	8864
1	1594	8865
1	1639	8866
1	1694	8867
1	1739	8868
1	1769	8869
1	1778	8870
1	1764	8871
1	1731	8872
1	1686	8873
1	1634	8874
1	1603	8875
1	1592	8876
1	1593	8877
1	1603	8878
1	1607	8879
1	1608	8880
1	1618	8881
1	1634	8882
1	1655	8883
1	1679	8884
1	1711	8885
1	1746	8886
1	1788	8887
1	1826	8888
1	1864	8889
1	1895	8890
1	1925	8891
1	1947	8892
1	1960	8893
1	1957	8894
1	1946	8895
1	1926	8896
1	1895	8897
1	1860	8898
1	1827	8899
1	1800	8900
1	1786	8901
1	1778	8902
1	1783	8903
1	1783	8904
1	1783	8905
1	1778	8906
1	1773	8907
1	1769	8908
1	1751	8909
1	1734	8910
1	1712	8911
1	1688	8912
1	1668	8913
1	1656	8914
1	1641	8915
1	1617	8916
1	1589	8917
1	1559	8918
1	1528	8919
1	1502	8920
1	1490	8921
1	1490	8922
1	1504	8923
1	1521	8924
1	1538	8925
1	1557	8926
1	1582	8927
1	1608	8928
1	1635	8929
1	1654	8930
1	1649	8931
1	1633	8932
1	1600	8933
1	1555	8934
1	1513	8935
1	1484	8936
1	1465	8937
1	1467	8938
1	1479	8939
1	1654	8960
1	1670	8961
1	1691	8962
1	1718	8963
1	1744	8964
1	1780	8965
1	1826	8966
1	1854	8967
1	1867	8968
1	1860	8969
1	1845	8970
1	1816	8971
1	1774	8972
1	1736	8973
1	1695	8974
1	1654	8975
1	1612	8976
1	1581	8977
1	1561	8978
1	1548	8979
1	1490	8940
1	1507	8941
1	1518	8942
1	1532	8943
1	1550	8944
1	1576	8945
1	1607	8946
1	1647	8947
1	1685	8948
1	1715	8949
1	1751	8950
1	1787	8951
1	1816	8952
1	1826	8953
1	1822	8954
1	1792	8955
1	1756	8956
1	1713	8957
1	1674	8958
1	1652	8959
1	1553	8980
1	1575	8981
1	1609	8982
1	1665	8983
1	1728	8984
1	1791	8985
1	1843	8986
1	1875	8987
1	1893	8988
1	1891	8989
1	1878	8990
1	1854	8991
1	1819	8992
1	1770	8993
1	1704	8994
1	1634	8995
1	1564	8996
1	1503	8997
1	1459	8998
1	1437	8999
1	1436	9000
1	1461	9001
1	1503	9002
1	1561	9003
1	1616	9004
1	1660	9005
1	1683	9006
1	1696	9007
1	1701	9008
1	1686	9009
1	1669	9010
1	1643	9011
1	1616	9012
1	1581	9013
1	1554	9014
1	1524	9015
1	1498	9016
1	1476	9017
1	1462	9018
1	1463	9019
1	1476	9020
1	1504	9021
1	1549	9022
1	1607	9023
1	1679	9024
1	1777	9025
1	1882	9026
1	1976	9027
1	2066	9028
1	2130	9029
1	2171	9030
1	2201	9031
1	2210	9032
1	2205	9033
1	2173	9034
1	2153	9035
1	2129	9036
1	2109	9037
1	2104	9038
1	2111	9039
1	1812	9060
1	1723	9061
1	1660	9062
1	1616	9063
1	1589	9064
1	1575	9065
1	1579	9066
1	1597	9067
1	1626	9068
1	1652	9069
1	1684	9070
1	1713	9071
1	1746	9072
1	1782	9073
1	1803	9074
1	1821	9075
1	1832	9076
1	1831	9077
1	1811	9078
1	1775	9079
1	1739	9080
1	1715	9081
1	1708	9082
1	1710	9083
1	1710	9084
1	1712	9085
1	1708	9086
1	1701	9087
1	1706	9088
1	1708	9089
1	1702	9090
1	1686	9091
1	1660	9092
1	1626	9093
1	1593	9094
1	1560	9095
1	1539	9096
1	1523	9097
1	1523	9098
1	1529	9099
1	1548	9100
1	1580	9101
1	1616	9102
1	1670	9103
1	1716	9104
1	1764	9105
1	1809	9106
1	1841	9107
1	1860	9108
1	1872	9109
1	1881	9110
1	1870	9111
1	1854	9112
1	1822	9113
1	1769	9114
1	1718	9115
1	1665	9116
1	1623	9117
1	1589	9118
1	1572	9119
1	2133	9040
1	2170	9041
1	2209	9042
1	2260	9043
1	2305	9044
1	2361	9045
1	2420	9046
1	2476	9047
1	2520	9048
1	2546	9049
1	2547	9050
1	2532	9051
1	2506	9052
1	2456	9053
1	2381	9054
1	2304	9055
1	2211	9056
1	2111	9057
1	2003	9058
1	1909	9059
1	1555	9120
1	1546	9121
1	1542	9122
1	1553	9123
1	1581	9124
1	1620	9125
1	1661	9126
1	1710	9127
1	1754	9128
1	1791	9129
1	1832	9130
1	1856	9131
1	1856	9132
1	1841	9133
1	1820	9134
1	1777	9135
1	1751	9136
1	1724	9137
1	1705	9138
1	1690	9139
1	1686	9140
1	1682	9141
1	1681	9142
1	1679	9143
1	1675	9144
1	1689	9145
1	1711	9146
1	1741	9147
1	1782	9148
1	1829	9149
1	1880	9150
1	1926	9151
1	1945	9152
1	1943	9153
1	1920	9154
1	1877	9155
1	1835	9156
1	1791	9157
1	1760	9158
1	1731	9159
1	1715	9160
1	1712	9161
1	1711	9162
1	1711	9163
1	1718	9164
1	1726	9165
1	1734	9166
1	1737	9167
1	1738	9168
1	1739	9169
1	1743	9170
1	1749	9171
1	1746	9172
1	1738	9173
1	1723	9174
1	1710	9175
1	1693	9176
1	1687	9177
1	1703	9178
1	1721	9179
1	1751	9180
1	1778	9181
1	1801	9182
1	1832	9183
1	1851	9184
1	1865	9185
1	1874	9186
1	1881	9187
1	1870	9188
1	1851	9189
1	1827	9190
1	1793	9191
1	1762	9192
1	1718	9193
1	1677	9194
1	1629	9195
1	1593	9196
1	1561	9197
1	1544	9198
1	1545	9199
1	1557	9200
1	1595	9201
1	1651	9202
1	1724	9203
1	1813	9204
1	1899	9205
1	1986	9206
1	2057	9207
1	2115	9208
1	2163	9209
1	2183	9210
1	2183	9211
1	2171	9212
1	2143	9213
1	2096	9214
1	2037	9215
1	1971	9216
1	1895	9217
1	1825	9218
1	1751	9219
1	1663	9240
1	1652	9241
1	1670	9242
1	1712	9243
1	1765	9244
1	1841	9245
1	1911	9246
1	1984	9247
1	2048	9248
1	2080	9249
1	2104	9250
1	2109	9251
1	2094	9252
1	2063	9253
1	2029	9254
1	1992	9255
1	1950	9256
1	1904	9257
1	1863	9258
1	1836	9259
1	1692	9220
1	1654	9221
1	1634	9222
1	1634	9223
1	1647	9224
1	1681	9225
1	1725	9226
1	1778	9227
1	1834	9228
1	1880	9229
1	1916	9230
1	1935	9231
1	1946	9232
1	1944	9233
1	1925	9234
1	1898	9235
1	1862	9236
1	1813	9237
1	1755	9238
1	1699	9239
1	1817	9260
1	1817	9261
1	1831	9262
1	1855	9263
1	1881	9264
1	1922	9265
1	1961	9266
1	1993	9267
1	2027	9268
1	2057	9269
1	2097	9270
1	2127	9271
1	2132	9272
1	2119	9273
1	2088	9274
1	2048	9275
1	2000	9276
1	1956	9277
1	1909	9278
1	1863	9279
1	1828	9280
1	1800	9281
1	1780	9282
1	1778	9283
1	1779	9284
1	1793	9285
1	1823	9286
1	1856	9287
1	1881	9288
1	1895	9289
1	1907	9290
1	1911	9291
1	1913	9292
1	1901	9293
1	1869	9294
1	1841	9295
1	1791	9296
1	1749	9297
1	1711	9298
1	1692	9299
1	1686	9300
1	1691	9301
1	1703	9302
1	1731	9303
1	1764	9304
1	1808	9305
1	1852	9306
1	1899	9307
1	1930	9308
1	1936	9309
1	1935	9310
1	1921	9311
1	1900	9312
1	1870	9313
1	1842	9314
1	1796	9315
1	1764	9316
1	1737	9317
1	1712	9318
1	1689	9319
1	1665	9320
1	1639	9321
1	1617	9322
1	1592	9323
1	1559	9324
1	1549	9325
1	1556	9326
1	1589	9327
1	1642	9328
1	1697	9329
1	1742	9330
1	1768	9331
1	1767	9332
1	1742	9333
1	1712	9334
1	1675	9335
1	1634	9336
1	1593	9337
1	1555	9338
1	1521	9339
1	1556	9360
1	1561	9361
1	1579	9362
1	1598	9363
1	1621	9364
1	1634	9365
1	1645	9366
1	1660	9367
1	1670	9368
1	1672	9369
1	1670	9370
1	1652	9371
1	1628	9372
1	1606	9373
1	1581	9374
1	1557	9375
1	1548	9376
1	1550	9377
1	1557	9378
1	1571	9379
1	1487	9340
1	1475	9341
1	1478	9342
1	1499	9343
1	1516	9344
1	1530	9345
1	1554	9346
1	1581	9347
1	1607	9348
1	1626	9349
1	1646	9350
1	1657	9351
1	1660	9352
1	1656	9353
1	1631	9354
1	1605	9355
1	1584	9356
1	1571	9357
1	1564	9358
1	1561	9359
1	1581	9380
1	1598	9381
1	1625	9382
1	1656	9383
1	1686	9384
1	1726	9385
1	1764	9386
1	1810	9387
1	1856	9388
1	1886	9389
1	1898	9390
1	1896	9391
1	1862	9392
1	1808	9393
1	1737	9394
1	1665	9395
1	1607	9396
1	1550	9397
1	1503	9398
1	1460	9399
1	1441	9400
1	1439	9401
1	1451	9402
1	1479	9403
1	1526	9404
1	1569	9405
1	1613	9406
1	1659	9407
1	1705	9408
1	1744	9409
1	1762	9410
1	1752	9411
1	1730	9412
1	1703	9413
1	1669	9414
1	1636	9415
1	1607	9416
1	1581	9417
1	1561	9418
1	1556	9419
1	1550	9420
1	1546	9421
1	1548	9422
1	1555	9423
1	1567	9424
1	1579	9425
1	1592	9426
1	1607	9427
1	1616	9428
1	1609	9429
1	1603	9430
1	1587	9431
1	1574	9432
1	1556	9433
1	1552	9434
1	1533	9435
1	1525	9436
1	1502	9437
1	1500	9438
1	1508	9439
1	1531	9440
1	1561	9441
1	1598	9442
1	1641	9443
1	1684	9444
1	1727	9445
1	1764	9446
1	1791	9447
1	1801	9448
1	1792	9449
1	1775	9450
1	1755	9451
1	1721	9452
1	1683	9453
1	1643	9454
1	1607	9455
1	1585	9456
1	1573	9457
1	1570	9458
1	1571	9459
1	1581	9460
1	1602	9461
1	1643	9462
1	1695	9463
1	1752	9464
1	1808	9465
1	1849	9466
1	1875	9467
1	1886	9468
1	1874	9469
1	1850	9470
1	1819	9471
1	1777	9472
1	1738	9473
1	1697	9474
1	1660	9475
1	1622	9476
1	1587	9477
1	1570	9478
1	1574	9479
1	1594	9480
1	1620	9481
1	1642	9482
1	1656	9483
1	1670	9484
1	1686	9485
1	1700	9486
1	1717	9487
1	1729	9488
1	1728	9489
1	1730	9490
1	1718	9491
1	1695	9492
1	1661	9493
1	1618	9494
1	1567	9495
1	1520	9496
1	1474	9497
1	1435	9498
1	1403	9499
1	1397	9500
1	1415	9501
1	1454	9502
1	1505	9503
1	1554	9504
1	1599	9505
1	1641	9506
1	1680	9507
1	1713	9508
1	1744	9509
1	1751	9510
1	1747	9511
1	1728	9512
1	1700	9513
1	1671	9514
1	1642	9515
1	1619	9516
1	1600	9517
1	1579	9518
1	1548	9519
1	1535	9520
1	1544	9521
1	1566	9522
1	1607	9523
1	1652	9524
1	1703	9525
1	1753	9526
1	1803	9527
1	1839	9528
1	1847	9529
1	1838	9530
1	1795	9531
1	1752	9532
1	1695	9533
1	1634	9534
1	1584	9535
1	1542	9536
1	1502	9537
1	1465	9538
1	1445	9539
1	1435	9540
1	1455	9541
1	1494	9542
1	1550	9543
1	1607	9544
1	1669	9545
1	1734	9546
1	1794	9547
1	1853	9548
1	1890	9549
1	1917	9550
1	1924	9551
1	1909	9552
1	1871	9553
1	1824	9554
1	1759	9555
1	1698	9556
1	1648	9557
1	1611	9558
1	1584	9559
1	1566	9560
1	1558	9561
1	1571	9562
1	1605	9563
1	1642	9564
1	1683	9565
1	1720	9566
1	1748	9567
1	1759	9568
1	1755	9569
1	1746	9570
1	1731	9571
1	1712	9572
1	1682	9573
1	1639	9574
1	1584	9575
1	1529	9576
1	1476	9577
1	1437	9578
1	1413	9579
1	1412	9580
1	1432	9581
1	1459	9582
1	1507	9583
1	1549	9584
1	1585	9585
1	1625	9586
1	1660	9587
1	1697	9588
1	1718	9589
1	1728	9590
1	1724	9591
1	1714	9592
1	1698	9593
1	1686	9594
1	1671	9595
1	1661	9596
1	1660	9597
1	1664	9598
1	1662	9599
1	1657	9600
1	1651	9601
1	1657	9602
1	1665	9603
1	1681	9604
1	1688	9605
1	1698	9606
1	1702	9607
1	1705	9608
1	1702	9609
1	1701	9610
1	1698	9611
1	1695	9612
1	1698	9613
1	1707	9614
1	1701	9615
1	1697	9616
1	1690	9617
1	1683	9618
1	1674	9619
1	1670	9620
1	1674	9621
1	1687	9622
1	1712	9623
1	1733	9624
1	1756	9625
1	1778	9626
1	1796	9627
1	1826	9628
1	1842	9629
1	1845	9630
1	1837	9631
1	1815	9632
1	1782	9633
1	1751	9634
1	1715	9635
1	1679	9636
1	1636	9637
1	1607	9638
1	1584	9639
1	1580	9640
1	1592	9641
1	1614	9642
1	1638	9643
1	1662	9644
1	1671	9645
1	1688	9646
1	1699	9647
1	1705	9648
1	1699	9649
1	1692	9650
1	1680	9651
1	1647	9652
1	1608	9653
1	1566	9654
1	1531	9655
1	1507	9656
1	1494	9657
1	1480	9658
1	1477	9659
1	1646	9680
1	1660	9681
1	1670	9682
1	1669	9683
1	1655	9684
1	1647	9685
1	1643	9686
1	1656	9687
1	1680	9688
1	1700	9689
1	1718	9690
1	1738	9691
1	1747	9692
1	1748	9693
1	1741	9694
1	1724	9695
1	1699	9696
1	1662	9697
1	1631	9698
1	1597	9699
1	1474	9660
1	1476	9661
1	1490	9662
1	1519	9663
1	1553	9664
1	1585	9665
1	1625	9666
1	1665	9667
1	1706	9668
1	1737	9669
1	1763	9670
1	1769	9671
1	1767	9672
1	1759	9673
1	1731	9674
1	1698	9675
1	1664	9676
1	1643	9677
1	1633	9678
1	1634	9679
1	1581	9700
1	1579	9701
1	1592	9702
1	1634	9703
1	1686	9704
1	1740	9705
1	1793	9706
1	1848	9707
1	1886	9708
1	1908	9709
1	1920	9710
1	1913	9711
1	1895	9712
1	1868	9713
1	1827	9714
1	1784	9715
1	1741	9716
1	1705	9717
1	1677	9718
1	1655	9719
1	1632	9720
1	1616	9721
1	1607	9722
1	1608	9723
1	1625	9724
1	1652	9725
1	1687	9726
1	1733	9727
1	1778	9728
1	1814	9729
1	1839	9730
1	1850	9731
1	1837	9732
1	1793	9733
1	1752	9734
1	1708	9735
1	1667	9736
1	1634	9737
1	1615	9738
1	1611	9739
1	1626	9740
1	1647	9741
1	1674	9742
1	1702	9743
1	1730	9744
1	1764	9745
1	1782	9746
1	1790	9747
1	1793	9748
1	1796	9749
1	1791	9750
1	1791	9751
1	1779	9752
1	1764	9753
1	1742	9754
1	1717	9755
1	1697	9756
1	1674	9757
1	1659	9758
1	1647	9759
1	1654	9760
1	1663	9761
1	1682	9762
1	1710	9763
1	1751	9764
1	1791	9765
1	1823	9766
1	1842	9767
1	1844	9768
1	1837	9769
1	1831	9770
1	1821	9771
1	1803	9772
1	1785	9773
1	1765	9774
1	1747	9775
1	1721	9776
1	1690	9777
1	1664	9778
1	1626	9779
1	1590	9780
1	1561	9781
1	1551	9782
1	1557	9783
1	1580	9784
1	1607	9785
1	1634	9786
1	1660	9787
1	1679	9788
1	1708	9789
1	1738	9790
1	1764	9791
1	1787	9792
1	1814	9793
1	1827	9794
1	1830	9795
1	1817	9796
1	1789	9797
1	1757	9798
1	1724	9799
1	1690	9800
1	1674	9801
1	1663	9802
1	1665	9803
1	1664	9804
1	1671	9805
1	1680	9806
1	1683	9807
1	1676	9808
1	1677	9809
1	1676	9810
1	1674	9811
1	1660	9812
1	1629	9813
1	1589	9814
1	1542	9815
1	1494	9816
1	1453	9817
1	1435	9818
1	1422	9819
1	1425	9820
1	1453	9821
1	1502	9822
1	1566	9823
1	1633	9824
1	1692	9825
1	1751	9826
1	1811	9827
1	1856	9828
1	1884	9829
1	1895	9830
1	1874	9831
1	1847	9832
1	1811	9833
1	1764	9834
1	1724	9835
1	1679	9836
1	1630	9837
1	1585	9838
1	1559	9839
1	1549	9840
1	1559	9841
1	1579	9842
1	1610	9843
1	1646	9844
1	1683	9845
1	1716	9846
1	1747	9847
1	1778	9848
1	1798	9849
1	1811	9850
1	1803	9851
1	1781	9852
1	1750	9853
1	1712	9854
1	1665	9855
1	1633	9856
1	1608	9857
1	1593	9858
1	1580	9859
1	1577	9860
1	1593	9861
1	1623	9862
1	1665	9863
1	1712	9864
1	1762	9865
1	1807	9866
1	1843	9867
1	1875	9868
1	1898	9869
1	1908	9870
1	1897	9871
1	1863	9872
1	1801	9873
1	1738	9874
1	1674	9875
1	1625	9876
1	1582	9877
1	1549	9878
1	1518	9879
1	1503	9880
1	1509	9881
1	1535	9882
1	1566	9883
1	1594	9884
1	1625	9885
1	1658	9886
1	1689	9887
1	1724	9888
1	1751	9889
1	1764	9890
1	1773	9891
1	1776	9892
1	1776	9893
1	1769	9894
1	1769	9895
1	1764	9896
1	1752	9897
1	1751	9898
1	1751	9899
1	1763	9900
1	1787	9901
1	1820	9902
1	1865	9903
1	1921	9904
1	1976	9905
1	2034	9906
1	2090	9907
1	2146	9908
1	2189	9909
1	2242	9910
1	2283	9911
1	2312	9912
1	2323	9913
1	2335	9914
1	2323	9915
1	2305	9916
1	2285	9917
1	2263	9918
1	2250	9919
1	2236	9920
1	2219	9921
1	2199	9922
1	2183	9923
1	2157	9924
1	2133	9925
1	2118	9926
1	2096	9927
1	2068	9928
1	2024	9929
1	1972	9930
1	1911	9931
1	1852	9932
1	1796	9933
1	1727	9934
1	1693	9935
1	1652	9936
1	1611	9937
1	1575	9938
1	1538	9939
1	1514	9940
1	1499	9941
1	1500	9942
1	1508	9943
1	1529	9944
1	1551	9945
1	1593	9946
1	1633	9947
1	1672	9948
1	1700	9949
1	1726	9950
1	1738	9951
1	1733	9952
1	1712	9953
1	1686	9954
1	1659	9955
1	1634	9956
1	1616	9957
1	1605	9958
1	1600	9959
1	1593	9960
1	1594	9961
1	1608	9962
1	1638	9963
1	1674	9964
1	1712	9965
1	1753	9966
1	1791	9967
1	1823	9968
1	1825	9969
1	1814	9970
1	1778	9971
1	1733	9972
1	1691	9973
1	1648	9974
1	1608	9975
1	1578	9976
1	1553	9977
1	1530	9978
1	1519	9979
1	1519	9980
1	1538	9981
1	1566	9982
1	1593	9983
1	1633	9984
1	1686	9985
1	1743	9986
1	1788	9987
1	1827	9988
1	1843	9989
1	1843	9990
1	1829	9991
1	1811	9992
1	1788	9993
1	1764	9994
1	1741	9995
1	1721	9996
1	1697	9997
1	1673	9998
1	1643	9999
1	1625	10000
1	1629	10001
1	1643	10002
1	1668	10003
1	1695	10004
1	1721	10005
1	1755	10006
1	1785	10007
1	1803	10008
1	1816	10009
1	1819	10010
1	1812	10011
1	1787	10012
1	1764	10013
1	1740	10014
1	1721	10015
1	1708	10016
1	1691	10017
1	1678	10018
1	1670	10019
1	1667	10020
1	1674	10021
1	1694	10022
1	1712	10023
1	1731	10024
1	1748	10025
1	1767	10026
1	1793	10027
1	1822	10028
1	1839	10029
1	1845	10030
1	1845	10031
1	1839	10032
1	1813	10033
1	1778	10034
1	1727	10035
1	1687	10036
1	1638	10037
1	1607	10038
1	1581	10039
1	1567	10040
1	1566	10041
1	1581	10042
1	1608	10043
1	1629	10044
1	1656	10045
1	1691	10046
1	1729	10047
1	1764	10048
1	1791	10049
1	1801	10050
1	1817	10051
1	1811	10052
1	1791	10053
1	1769	10054
1	1742	10055
1	1720	10056
1	1711	10057
1	1710	10058
1	1712	10059
1	1715	10060
1	1716	10061
1	1724	10062
1	1738	10063
1	1760	10064
1	1778	10065
1	1809	10066
1	1837	10067
1	1854	10068
1	1864	10069
1	1873	10070
1	1880	10071
1	1881	10072
1	1881	10073
1	1870	10074
1	1861	10075
1	1841	10076
1	1802	10077
1	1774	10078
1	1751	10079
1	1737	10080
1	1737	10081
1	1747	10082
1	1776	10083
1	1818	10084
1	1861	10085
1	1896	10086
1	1923	10087
1	1937	10088
1	1945	10089
1	1947	10090
1	1939	10091
1	1939	10092
