#Date:= 2024-10-08T16:12:28.723541
#Sampling Rate(Hz):= 1000
#Labels:= LOD	ECG	TS
1	1647	20
1	1644	21
1	1647	22
1	1652	23
1	1661	24
1	1670	25
1	1676	26
1	1675	27
1	1668	28
1	1655	29
1	1638	30
1	1629	31
1	1621	32
1	1618	33
1	1615	34
1	1620	35
1	1672	36
1	1674	37
1	1683	38
1	1698	39
1	1715	40
1	1731	41
1	1746	42
1	1763	43
1	1776	44
1	1773	45
1	1769	46
1	1757	47
1	1740	48
1	1724	49
1	1707	50
1	1685	51
1	1668	52
1	1652	53
1	1647	54
1	1647	55
1	1648	56
1	1651	57
1	1656	58
1	1660	59
1	1668	60
1	1681	61
1	1692	62
1	1702	63
1	1710	64
1	1718	65
1	1720	66
1	1718	67
1	1719	68
1	1715	69
1	1707	70
1	1695	71
1	1685	72
1	1672	73
1	1662	74
1	1647	75
1	1645	76
1	1643	77
1	1649	78
1	1661	79
1	1708	100
1	1721	101
1	1738	102
1	1753	103
1	1769	104
1	1775	105
1	1778	106
1	1773	107
1	1760	108
1	1740	109
1	1725	110
1	1710	111
1	1691	112
1	1677	113
1	1668	114
1	1661	115
1	1662	116
1	1674	117
1	1691	118
1	1714	119
1	1693	80
1	1723	81
1	1753	82
1	1787	83
1	1796	84
1	1815	85
1	1809	86
1	1791	87
1	1773	88
1	1752	89
1	1726	90
1	1699	91
1	1674	92
1	1656	93
1	1637	94
1	1636	95
1	1635	96
1	1645	97
1	1661	98
1	1686	99
1	1734	120
1	1757	121
1	1782	122
1	1801	123
1	1812	124
1	1815	125
1	1802	126
1	1787	127
1	1767	128
1	1748	129
1	1724	130
1	1699	131
1	1682	132
1	1668	133
1	1664	134
1	1660	135
1	1662	136
1	1672	137
1	1682	138
1	1688	139
1	1698	140
1	1715	141
1	1727	142
1	1737	143
1	1743	144
1	1751	145
1	1762	146
1	1767	147
1	1785	148
1	1796	149
1	1799	150
1	1787	151
1	1764	152
1	1736	153
1	1706	154
1	1682	155
1	1660	156
1	1655	157
1	1660	158
1	1673	159
1	1687	160
1	1705	161
1	1727	162
1	1751	163
1	1775	164
1	1791	165
1	1814	166
1	1827	167
1	1839	168
1	1844	169
1	1854	170
1	1851	171
1	1843	172
1	1830	173
1	1822	174
1	1816	175
1	1803	176
1	1800	177
1	1800	178
1	1813	179
1	1845	200
1	1860	201
1	1869	202
1	1881	203
1	1888	204
1	1895	205
1	1895	206
1	1893	207
1	1893	208
1	1895	209
1	1893	210
1	1884	211
1	1869	212
1	1848	213
1	1829	214
1	1822	215
1	1817	216
1	1816	217
1	1821	218
1	1827	219
1	1820	180
1	1839	181
1	1859	182
1	1875	183
1	1890	184
1	1907	185
1	1909	186
1	1908	187
1	1901	188
1	1895	189
1	1886	190
1	1873	191
1	1863	192
1	1847	193
1	1833	194
1	1815	195
1	1801	196
1	1799	197
1	1809	198
1	1822	199
1	1832	220
1	1835	221
1	1838	222
1	1842	223
1	1843	224
1	1843	225
1	1845	226
1	1843	227
1	1829	228
1	1813	229
1	1791	230
1	1765	231
1	1740	232
1	1719	233
1	1701	234
1	1696	235
1	1692	236
1	1697	237
1	1697	238
1	1710	239
1	1725	240
1	1740	241
1	1756	242
1	1772	243
1	1788	244
1	1796	245
1	1799	246
1	1795	247
1	1789	248
1	1787	249
1	1770	250
1	1754	251
1	1738	252
1	1730	253
1	1729	254
1	1726	255
1	1728	256
1	1733	257
1	1737	258
1	1741	259
1	1752	260
1	1759	261
1	1762	262
1	1765	263
1	1765	264
1	1764	265
1	1757	266
1	1744	267
1	1726	268
1	1706	269
1	1685	270
1	1673	271
1	1665	272
1	1665	273
1	1677	274
1	1699	275
1	1718	276
1	1738	277
1	1752	278
1	1764	279
1	1772	280
1	1775	281
1	1777	282
1	1778	283
1	1778	284
1	1767	285
1	1760	286
1	1749	287
1	1733	288
1	1716	289
1	1711	290
1	1699	291
1	1691	292
1	1691	293
1	1699	294
1	1710	295
1	1713	296
1	1722	297
1	1728	298
1	1739	299
1	1752	300
1	1778	301
1	1817	302
1	1856	303
1	1898	304
1	1948	305
1	1983	306
1	2016	307
1	2047	308
1	2071	309
1	2094	310
1	2119	311
1	2147	312
1	2179	313
1	2222	314
1	2275	315
1	2341	316
1	2417	317
1	2492	318
1	2550	319
1	2623	320
1	2682	321
1	2742	322
1	2802	323
1	2861	324
1	2914	325
1	2959	326
1	2990	327
1	3012	328
1	3016	329
1	3005	330
1	2979	331
1	2939	332
1	2890	333
1	2836	334
1	2778	335
1	2707	336
1	2638	337
1	2561	338
1	2488	339
1	2402	340
1	2322	341
1	2253	342
1	2184	343
1	2130	344
1	2076	345
1	2026	346
1	1974	347
1	1920	348
1	1867	349
1	1815	350
1	1764	351
1	1719	352
1	1674	353
1	1638	354
1	1611	355
1	1607	356
1	1611	357
1	1634	358
1	1662	359
1	1688	360
1	1715	361
1	1738	362
1	1753	363
1	1764	364
1	1773	365
1	1782	366
1	1782	367
1	1777	368
1	1763	369
1	1738	370
1	1710	371
1	1677	372
1	1647	373
1	1628	374
1	1607	375
1	1598	376
1	1595	377
1	1603	378
1	1620	379
1	1653	380
1	1674	381
1	1693	382
1	1710	383
1	1723	384
1	1734	385
1	1738	386
1	1728	387
1	1715	388
1	1710	389
1	1706	390
1	1701	391
1	1692	392
1	1683	393
1	1670	394
1	1665	395
1	1661	396
1	1662	397
1	1667	398
1	1674	399
1	1684	400
1	1692	401
1	1702	402
1	1713	403
1	1724	404
1	1726	405
1	1726	406
1	1726	407
1	1724	408
1	1725	409
1	1733	410
1	1733	411
1	1730	412
1	1719	413
1	1701	414
1	1679	415
1	1663	416
1	1656	417
1	1654	418
1	1660	419
1	1659	420
1	1661	421
1	1672	422
1	1677	423
1	1686	424
1	1708	425
1	1731	426
1	1759	427
1	1782	428
1	1799	429
1	1808	430
1	1796	431
1	1778	432
1	1755	433
1	1736	434
1	1712	435
1	1693	436
1	1686	437
1	1686	438
1	1686	439
1	1739	460
1	1762	461
1	1786	462
1	1809	463
1	1829	464
1	1839	465
1	1848	466
1	1857	467
1	1863	468
1	1869	469
1	1873	470
1	1867	471
1	1856	472
1	1841	473
1	1821	474
1	1809	475
1	1812	476
1	1819	477
1	1838	478
1	1855	479
1	1867	480
1	1880	481
1	1888	482
1	1895	483
1	1895	484
1	1908	485
1	1916	486
1	1913	487
1	1919	488
1	1908	489
1	1893	490
1	1870	491
1	1854	492
1	1843	493
1	1843	494
1	1848	495
1	1863	496
1	1878	497
1	1890	498
1	1895	499
1	1691	440
1	1710	441
1	1728	442
1	1753	443
1	1775	444
1	1790	445
1	1796	446
1	1799	447
1	1796	448
1	1791	449
1	1782	450
1	1770	451
1	1756	452
1	1740	453
1	1721	454
1	1706	455
1	1698	456
1	1698	457
1	1711	458
1	1724	459
1	1908	500
1	1911	501
1	1920	502
1	1926	503
1	1931	504
1	1932	505
1	1930	506
1	1922	507
1	1917	508
1	1908	509
1	1891	510
1	1874	511
1	1862	512
1	1846	513
1	1830	514
1	1818	515
1	1809	516
1	1801	517
1	1803	518
1	1812	519
1	1818	520
1	1837	521
1	1862	522
1	1891	523
1	1912	524
1	1923	525
1	1935	526
1	1939	527
1	1933	528
1	1921	529
1	1904	530
1	1877	531
1	1856	532
1	1843	533
1	1842	534
1	1843	535
1	1855	536
1	1868	537
1	1873	538
1	1885	539
1	1895	540
1	1896	541
1	1894	542
1	1878	543
1	1857	544
1	1832	545
1	1814	546
1	1793	547
1	1785	548
1	1786	549
1	1785	550
1	1790	551
1	1796	552
1	1801	553
1	1800	554
1	1791	555
1	1785	556
1	1783	557
1	1783	558
1	1781	559
1	1787	560
1	1788	561
1	1791	562
1	1801	563
1	1817	564
1	1818	565
1	1817	566
1	1809	567
1	1790	568
1	1769	569
1	1743	570
1	1723	571
1	1706	572
1	1690	573
1	1681	574
1	1679	575
1	1674	576
1	1671	577
1	1675	578
1	1686	579
1	1705	580
1	1727	581
1	1754	582
1	1783	583
1	1815	584
1	1827	585
1	1842	586
1	1845	587
1	1843	588
1	1821	589
1	1792	590
1	1753	591
1	1699	592
1	1634	593
1	1571	594
1	1516	595
1	1479	596
1	1467	597
1	1470	598
1	1485	599
1	1503	600
1	1541	601
1	1584	602
1	1634	603
1	1679	604
1	1724	605
1	1751	606
1	1764	607
1	1764	608
1	1759	609
1	1739	610
1	1711	611
1	1675	612
1	1642	613
1	1610	614
1	1581	615
1	1555	616
1	1535	617
1	1520	618
1	1503	619
1	1503	620
1	1508	621
1	1528	622
1	1555	623
1	1581	624
1	1606	625
1	1618	626
1	1624	627
1	1621	628
1	1616	629
1	1602	630
1	1593	631
1	1583	632
1	1580	633
1	1571	634
1	1568	635
1	1559	636
1	1555	637
1	1555	638
1	1561	639
1	1569	640
1	1582	641
1	1597	642
1	1612	643
1	1628	644
1	1645	645
1	1660	646
1	1670	647
1	1670	648
1	1662	649
1	1647	650
1	1638	651
1	1622	652
1	1598	653
1	1581	654
1	1555	655
1	1531	656
1	1519	657
1	1518	658
1	1529	659
1	1542	660
1	1562	661
1	1581	662
1	1605	663
1	1633	664
1	1660	665
1	1674	666
1	1687	667
1	1697	668
1	1698	669
1	1697	670
1	1686	671
1	1671	672
1	1651	673
1	1630	674
1	1607	675
1	1602	676
1	1598	677
1	1598	678
1	1597	679
1	1607	680
1	1616	681
1	1625	682
1	1631	683
1	1634	684
1	1634	685
1	1634	686
1	1629	687
1	1632	688
1	1638	689
1	1644	690
1	1645	691
1	1646	692
1	1644	693
1	1643	694
1	1648	695
1	1651	696
1	1657	697
1	1661	698
1	1669	699
1	1674	700
1	1677	701
1	1683	702
1	1686	703
1	1690	704
1	1687	705
1	1686	706
1	1686	707
1	1684	708
1	1685	709
1	1688	710
1	1683	711
1	1671	712
1	1659	713
1	1646	714
1	1635	715
1	1630	716
1	1630	717
1	1634	718
1	1646	719
1	1660	720
1	1680	721
1	1695	722
1	1702	723
1	1703	724
1	1700	725
1	1687	726
1	1673	727
1	1659	728
1	1643	729
1	1633	730
1	1621	731
1	1616	732
1	1610	733
1	1611	734
1	1607	735
1	1613	736
1	1625	737
1	1634	738
1	1652	739
1	1651	760
1	1678	761
1	1706	762
1	1735	763
1	1760	764
1	1773	765
1	1780	766
1	1778	767
1	1764	768
1	1738	769
1	1710	770
1	1674	771
1	1634	772
1	1594	773
1	1558	774
1	1533	775
1	1524	776
1	1525	777
1	1539	778
1	1571	779
1	1662	740
1	1686	741
1	1695	742
1	1703	743
1	1708	744
1	1704	745
1	1698	746
1	1686	747
1	1671	748
1	1660	749
1	1643	750
1	1629	751
1	1619	752
1	1608	753
1	1602	754
1	1598	755
1	1598	756
1	1597	757
1	1610	758
1	1628	759
1	1654	800
1	1662	801
1	1669	802
1	1670	803
1	1672	804
1	1673	805
1	1673	806
1	1672	807
1	1670	808
1	1661	809
1	1646	810
1	1634	811
1	1621	812
1	1611	813
1	1606	814
1	1606	815
1	1598	816
1	1593	817
1	1584	818
1	1585	819
1	1603	780
1	1641	781
1	1677	782
1	1707	783
1	1728	784
1	1740	785
1	1736	786
1	1713	787
1	1700	788
1	1683	789
1	1661	790
1	1644	791
1	1625	792
1	1612	793
1	1607	794
1	1607	795
1	1608	796
1	1618	797
1	1628	798
1	1636	799
1	1596	820
1	1616	821
1	1641	822
1	1669	823
1	1690	824
1	1701	825
1	1713	826
1	1720	827
1	1712	828
1	1697	829
1	1677	830
1	1656	831
1	1638	832
1	1625	833
1	1611	834
1	1611	835
1	1623	836
1	1629	837
1	1625	838
1	1621	839
1	1615	840
1	1609	841
1	1613	842
1	1622	843
1	1636	844
1	1650	845
1	1664	846
1	1670	847
1	1669	848
1	1672	849
1	1662	850
1	1658	851
1	1643	852
1	1624	853
1	1603	854
1	1579	855
1	1568	856
1	1564	857
1	1568	858
1	1579	859
1	1603	860
1	1626	861
1	1651	862
1	1674	863
1	1697	864
1	1707	865
1	1711	866
1	1705	867
1	1695	868
1	1679	869
1	1654	870
1	1634	871
1	1620	872
1	1607	873
1	1593	874
1	1587	875
1	1581	876
1	1584	877
1	1592	878
1	1602	879
1	1607	880
1	1616	881
1	1624	882
1	1634	883
1	1647	884
1	1657	885
1	1669	886
1	1683	887
1	1686	888
1	1686	889
1	1697	890
1	1697	891
1	1690	892
1	1685	893
1	1670	894
1	1652	895
1	1638	896
1	1628	897
1	1625	898
1	1634	899
1	1636	900
1	1647	901
1	1657	902
1	1660	903
1	1662	904
1	1670	905
1	1674	906
1	1678	907
1	1679	908
1	1678	909
1	1674	910
1	1669	911
1	1662	912
1	1657	913
1	1648	914
1	1634	915
1	1620	916
1	1607	917
1	1600	918
1	1602	919
1	1622	920
1	1648	921
1	1683	922
1	1715	923
1	1744	924
1	1763	925
1	1768	926
1	1764	927
1	1752	928
1	1736	929
1	1707	930
1	1687	931
1	1676	932
1	1665	933
1	1660	934
1	1662	935
1	1672	936
1	1686	937
1	1705	938
1	1726	939
1	1738	940
1	1755	941
1	1773	942
1	1790	943
1	1802	944
1	1816	945
1	1816	946
1	1811	947
1	1795	948
1	1777	949
1	1751	950
1	1747	951
1	1742	952
1	1737	953
1	1728	954
1	1714	955
1	1687	956
1	1660	957
1	1638	958
1	1625	959
1	1618	960
1	1619	961
1	1626	962
1	1636	963
1	1647	964
1	1667	965
1	1680	966
1	1686	967
1	1703	968
1	1720	969
1	1738	970
1	1744	971
1	1741	972
1	1724	973
1	1698	974
1	1658	975
1	1620	976
1	1593	977
1	1574	978
1	1567	979
1	1634	1000
1	1660	1001
1	1686	1002
1	1700	1003
1	1710	1004
1	1705	1005
1	1699	1006
1	1690	1007
1	1677	1008
1	1660	1009
1	1647	1010
1	1629	1011
1	1613	1012
1	1607	1013
1	1604	1014
1	1607	1015
1	1618	1016
1	1630	1017
1	1640	1018
1	1646	1019
1	1579	980
1	1587	981
1	1603	982
1	1620	983
1	1634	984
1	1645	985
1	1652	986
1	1659	987
1	1660	988
1	1659	989
1	1644	990
1	1631	991
1	1618	992
1	1604	993
1	1586	994
1	1578	995
1	1575	996
1	1579	997
1	1586	998
1	1607	999
1	1641	1020
1	1636	1021
1	1634	1022
1	1634	1023
1	1634	1024
1	1645	1025
1	1649	1026
1	1660	1027
1	1667	1028
1	1674	1029
1	1676	1030
1	1665	1031
1	1652	1032
1	1632	1033
1	1608	1034
1	1593	1035
1	1581	1036
1	1575	1037
1	1569	1038
1	1577	1039
1	1589	1040
1	1626	1041
1	1660	1042
1	1699	1043
1	1746	1044
1	1788	1045
1	1842	1046
1	1887	1047
1	1925	1048
1	1955	1049
1	1983	1050
1	2011	1051
1	2032	1052
1	2057	1053
1	2084	1054
1	2118	1055
1	2159	1056
1	2211	1057
1	2282	1058
1	2366	1059
1	2451	1060
1	2525	1061
1	2601	1062
1	2664	1063
1	2722	1064
1	2770	1065
1	2811	1066
1	2843	1067
1	2863	1068
1	2866	1069
1	2853	1070
1	2835	1071
1	2807	1072
1	2775	1073
1	2740	1074
1	2699	1075
1	2658	1076
1	2611	1077
1	2558	1078
1	2497	1079
1	1585	1100
1	1607	1101
1	1629	1102
1	1636	1103
1	1635	1104
1	1629	1105
1	1615	1106
1	1607	1107
1	1595	1108
1	1586	1109
1	1574	1110
1	1557	1111
1	1546	1112
1	1531	1113
1	1521	1114
1	1516	1115
1	1508	1116
1	1503	1117
1	1503	1118
1	1503	1119
1	2405	1080
1	2310	1081
1	2212	1082
1	2129	1083
1	2043	1084
1	1973	1085
1	1904	1086
1	1841	1087
1	1782	1088
1	1732	1089
1	1686	1090
1	1652	1091
1	1625	1092
1	1607	1093
1	1589	1094
1	1568	1095
1	1553	1096
1	1544	1097
1	1550	1098
1	1561	1099
1	1512	1120
1	1529	1121
1	1551	1122
1	1575	1123
1	1594	1124
1	1600	1125
1	1607	1126
1	1607	1127
1	1593	1128
1	1571	1129
1	1546	1130
1	1525	1131
1	1503	1132
1	1490	1133
1	1487	1134
1	1497	1135
1	1512	1136
1	1529	1137
1	1538	1138
1	1556	1139
1	1571	1140
1	1581	1141
1	1581	1142
1	1583	1143
1	1582	1144
1	1585	1145
1	1585	1146
1	1587	1147
1	1585	1148
1	1576	1149
1	1564	1150
1	1549	1151
1	1533	1152
1	1515	1153
1	1503	1154
1	1487	1155
1	1478	1156
1	1484	1157
1	1492	1158
1	1503	1159
1	1530	1160
1	1555	1161
1	1581	1162
1	1609	1163
1	1638	1164
1	1665	1165
1	1690	1166
1	1700	1167
1	1700	1168
1	1692	1169
1	1674	1170
1	1658	1171
1	1634	1172
1	1607	1173
1	1581	1174
1	1567	1175
1	1553	1176
1	1551	1177
1	1554	1178
1	1561	1179
1	1574	1180
1	1590	1181
1	1609	1182
1	1633	1183
1	1656	1184
1	1670	1185
1	1680	1186
1	1685	1187
1	1679	1188
1	1669	1189
1	1660	1190
1	1643	1191
1	1620	1192
1	1594	1193
1	1571	1194
1	1550	1195
1	1535	1196
1	1529	1197
1	1536	1198
1	1553	1199
1	1572	1200
1	1595	1201
1	1616	1202
1	1634	1203
1	1652	1204
1	1674	1205
1	1688	1206
1	1699	1207
1	1699	1208
1	1687	1209
1	1668	1210
1	1647	1211
1	1632	1212
1	1625	1213
1	1629	1214
1	1633	1215
1	1635	1216
1	1644	1217
1	1654	1218
1	1664	1219
1	1686	1220
1	1712	1221
1	1738	1222
1	1763	1223
1	1779	1224
1	1782	1225
1	1777	1226
1	1762	1227
1	1739	1228
1	1721	1229
1	1700	1230
1	1686	1231
1	1672	1232
1	1657	1233
1	1638	1234
1	1632	1235
1	1625	1236
1	1634	1237
1	1657	1238
1	1687	1239
1	1713	1240
1	1747	1241
1	1778	1242
1	1808	1243
1	1829	1244
1	1839	1245
1	1845	1246
1	1849	1247
1	1845	1248
1	1836	1249
1	1817	1250
1	1800	1251
1	1783	1252
1	1764	1253
1	1751	1254
1	1739	1255
1	1728	1256
1	1714	1257
1	1703	1258
1	1693	1259
1	1751	1280
1	1766	1281
1	1783	1282
1	1791	1283
1	1791	1284
1	1796	1285
1	1796	1286
1	1799	1287
1	1795	1288
1	1783	1289
1	1762	1290
1	1738	1291
1	1712	1292
1	1690	1293
1	1674	1294
1	1673	1295
1	1674	1296
1	1683	1297
1	1692	1298
1	1699	1299
1	1683	1260
1	1685	1261
1	1696	1262
1	1712	1263
1	1736	1264
1	1764	1265
1	1782	1266
1	1798	1267
1	1809	1268
1	1817	1269
1	1818	1270
1	1813	1271
1	1791	1272
1	1764	1273
1	1738	1274
1	1719	1275
1	1712	1276
1	1711	1277
1	1715	1278
1	1729	1279
1	1712	1300
1	1725	1301
1	1740	1302
1	1756	1303
1	1767	1304
1	1769	1305
1	1764	1306
1	1753	1307
1	1737	1308
1	1710	1309
1	1686	1310
1	1662	1311
1	1647	1312
1	1641	1313
1	1638	1314
1	1643	1315
1	1645	1316
1	1646	1317
1	1641	1318
1	1631	1319
1	1611	1320
1	1598	1321
1	1594	1322
1	1600	1323
1	1612	1324
1	1634	1325
1	1651	1326
1	1660	1327
1	1659	1328
1	1647	1329
1	1621	1330
1	1587	1331
1	1554	1332
1	1518	1333
1	1488	1334
1	1462	1335
1	1448	1336
1	1449	1337
1	1458	1338
1	1477	1339
1	1508	1340
1	1540	1341
1	1563	1342
1	1589	1343
1	1603	1344
1	1602	1345
1	1594	1346
1	1579	1347
1	1557	1348
1	1538	1349
1	1516	1350
1	1499	1351
1	1489	1352
1	1482	1353
1	1485	1354
1	1490	1355
1	1500	1356
1	1515	1357
1	1537	1358
1	1565	1359
1	1582	1360
1	1598	1361
1	1600	1362
1	1599	1363
1	1597	1364
1	1589	1365
1	1581	1366
1	1573	1367
1	1559	1368
1	1551	1369
1	1544	1370
1	1533	1371
1	1518	1372
1	1503	1373
1	1491	1374
1	1484	1375
1	1480	1376
1	1479	1377
1	1482	1378
1	1491	1379
1	1499	1380
1	1515	1381
1	1531	1382
1	1549	1383
1	1557	1384
1	1568	1385
1	1571	1386
1	1569	1387
1	1566	1388
1	1561	1389
1	1551	1390
1	1534	1391
1	1518	1392
1	1507	1393
1	1500	1394
1	1485	1395
1	1476	1396
1	1471	1397
1	1471	1398
1	1476	1399
1	1500	1400
1	1520	1401
1	1543	1402
1	1564	1403
1	1580	1404
1	1587	1405
1	1590	1406
1	1583	1407
1	1575	1408
1	1557	1409
1	1533	1410
1	1512	1411
1	1494	1412
1	1477	1413
1	1472	1414
1	1476	1415
1	1490	1416
1	1501	1417
1	1514	1418
1	1530	1419
1	1551	1420
1	1566	1421
1	1581	1422
1	1593	1423
1	1605	1424
1	1610	1425
1	1628	1426
1	1638	1427
1	1644	1428
1	1636	1429
1	1628	1430
1	1607	1431
1	1581	1432
1	1547	1433
1	1508	1434
1	1476	1435
1	1450	1436
1	1438	1437
1	1428	1438
1	1429	1439
1	1438	1440
1	1450	1441
1	1474	1442
1	1490	1443
1	1512	1444
1	1530	1445
1	1541	1446
1	1545	1447
1	1554	1448
1	1544	1449
1	1544	1450
1	1535	1451
1	1533	1452
1	1531	1453
1	1538	1454
1	1533	1455
1	1531	1456
1	1533	1457
1	1536	1458
1	1538	1459
1	1546	1460
1	1546	1461
1	1550	1462
1	1557	1463
1	1572	1464
1	1584	1465
1	1593	1466
1	1596	1467
1	1592	1468
1	1581	1469
1	1567	1470
1	1555	1471
1	1544	1472
1	1536	1473
1	1526	1474
1	1517	1475
1	1508	1476
1	1502	1477
1	1500	1478
1	1507	1479
1	1541	1500
1	1580	1501
1	1610	1502
1	1638	1503
1	1660	1504
1	1675	1505
1	1665	1506
1	1642	1507
1	1607	1508
1	1564	1509
1	1522	1510
1	1478	1511
1	1440	1512
1	1411	1513
1	1383	1514
1	1360	1515
1	1355	1516
1	1355	1517
1	1370	1518
1	1395	1519
1	1524	1480
1	1545	1481
1	1570	1482
1	1594	1483
1	1616	1484
1	1624	1485
1	1625	1486
1	1616	1487
1	1598	1488
1	1580	1489
1	1560	1490
1	1529	1491
1	1502	1492
1	1477	1493
1	1459	1494
1	1450	1495
1	1443	1496
1	1450	1497
1	1474	1498
1	1504	1499
1	1426	1520
1	1458	1521
1	1499	1522
1	1538	1523
1	1581	1524
1	1619	1525
1	1647	1526
1	1660	1527
1	1656	1528
1	1638	1529
1	1615	1530
1	1593	1531
1	1572	1532
1	1546	1533
1	1524	1534
1	1504	1535
1	1487	1536
1	1472	1537
1	1462	1538
1	1461	1539
1	1461	1540
1	1472	1541
1	1489	1542
1	1508	1543
1	1537	1544
1	1559	1545
1	1580	1546
1	1594	1547
1	1605	1548
1	1611	1549
1	1616	1550
1	1610	1551
1	1593	1552
1	1575	1553
1	1537	1554
1	1514	1555
1	1490	1556
1	1476	1557
1	1467	1558
1	1463	1559
1	1456	1560
1	1459	1561
1	1465	1562
1	1468	1563
1	1475	1564
1	1487	1565
1	1495	1566
1	1507	1567
1	1523	1568
1	1539	1569
1	1553	1570
1	1559	1571
1	1557	1572
1	1552	1573
1	1533	1574
1	1503	1575
1	1482	1576
1	1463	1577
1	1441	1578
1	1427	1579
1	1424	1580
1	1424	1581
1	1429	1582
1	1447	1583
1	1479	1584
1	1517	1585
1	1551	1586
1	1580	1587
1	1597	1588
1	1598	1589
1	1581	1590
1	1555	1591
1	1528	1592
1	1503	1593
1	1484	1594
1	1477	1595
1	1479	1596
1	1489	1597
1	1498	1598
1	1506	1599
1	1515	1600
1	1529	1601
1	1544	1602
1	1566	1603
1	1589	1604
1	1603	1605
1	1613	1606
1	1623	1607
1	1620	1608
1	1608	1609
1	1599	1610
1	1578	1611
1	1553	1612
1	1522	1613
1	1491	1614
1	1461	1615
1	1436	1616
1	1413	1617
1	1407	1618
1	1412	1619
1	1423	1620
1	1445	1621
1	1472	1622
1	1498	1623
1	1518	1624
1	1543	1625
1	1556	1626
1	1561	1627
1	1563	1628
1	1566	1629
1	1571	1630
1	1576	1631
1	1574	1632
1	1567	1633
1	1554	1634
1	1533	1635
1	1515	1636
1	1499	1637
1	1487	1638
1	1480	1639
1	1487	1640
1	1493	1641
1	1499	1642
1	1518	1643
1	1530	1644
1	1543	1645
1	1560	1646
1	1579	1647
1	1585	1648
1	1590	1649
1	1580	1650
1	1562	1651
1	1542	1652
1	1515	1653
1	1484	1654
1	1455	1655
1	1439	1656
1	1432	1657
1	1436	1658
1	1440	1659
1	1449	1660
1	1459	1661
1	1474	1662
1	1490	1663
1	1520	1664
1	1548	1665
1	1580	1666
1	1607	1667
1	1629	1668
1	1638	1669
1	1632	1670
1	1606	1671
1	1580	1672
1	1542	1673
1	1503	1674
1	1467	1675
1	1438	1676
1	1424	1677
1	1423	1678
1	1437	1679
1	1469	1680
1	1521	1681
1	1580	1682
1	1631	1683
1	1664	1684
1	1692	1685
1	1693	1686
1	1682	1687
1	1656	1688
1	1626	1689
1	1599	1690
1	1571	1691
1	1544	1692
1	1526	1693
1	1512	1694
1	1500	1695
1	1495	1696
1	1496	1697
1	1503	1698
1	1517	1699
1	1538	1700
1	1558	1701
1	1579	1702
1	1594	1703
1	1609	1704
1	1629	1705
1	1648	1706
1	1670	1707
1	1685	1708
1	1690	1709
1	1686	1710
1	1672	1711
1	1660	1712
1	1634	1713
1	1608	1714
1	1587	1715
1	1566	1716
1	1555	1717
1	1557	1718
1	1568	1719
1	1581	1720
1	1596	1721
1	1612	1722
1	1631	1723
1	1648	1724
1	1659	1725
1	1662	1726
1	1662	1727
1	1654	1728
1	1634	1729
1	1615	1730
1	1585	1731
1	1551	1732
1	1513	1733
1	1476	1734
1	1447	1735
1	1428	1736
1	1424	1737
1	1428	1738
1	1451	1739
1	1476	1740
1	1503	1741
1	1525	1742
1	1548	1743
1	1569	1744
1	1592	1745
1	1606	1746
1	1611	1747
1	1610	1748
1	1593	1749
1	1570	1750
1	1549	1751
1	1532	1752
1	1519	1753
1	1507	1754
1	1490	1755
1	1474	1756
1	1456	1757
1	1446	1758
1	1438	1759
1	1445	1760
1	1449	1761
1	1458	1762
1	1481	1763
1	1503	1764
1	1530	1765
1	1553	1766
1	1566	1767
1	1569	1768
1	1565	1769
1	1544	1770
1	1528	1771
1	1512	1772
1	1490	1773
1	1476	1774
1	1468	1775
1	1467	1776
1	1476	1777
1	1487	1778
1	1501	1779
1	1512	1780
1	1518	1781
1	1525	1782
1	1538	1783
1	1555	1784
1	1566	1785
1	1576	1786
1	1584	1787
1	1591	1788
1	1589	1789
1	1585	1790
1	1571	1791
1	1545	1792
1	1521	1793
1	1495	1794
1	1471	1795
1	1441	1796
1	1427	1797
1	1418	1798
1	1416	1799
1	1418	1800
1	1424	1801
1	1440	1802
1	1466	1803
1	1494	1804
1	1534	1805
1	1563	1806
1	1582	1807
1	1598	1808
1	1610	1809
1	1623	1810
1	1646	1811
1	1665	1812
1	1687	1813
1	1713	1814
1	1737	1815
1	1765	1816
1	1795	1817
1	1829	1818
1	1858	1819
1	1908	1820
1	1958	1821
1	2019	1822
1	2088	1823
1	2163	1824
1	2248	1825
1	2328	1826
1	2407	1827
1	2485	1828
1	2543	1829
1	2585	1830
1	2623	1831
1	2648	1832
1	2666	1833
1	2681	1834
1	2687	1835
1	2686	1836
1	2683	1837
1	2678	1838
1	2673	1839
1	2661	1840
1	2649	1841
1	2632	1842
1	2603	1843
1	2562	1844
1	2506	1845
1	2424	1846
1	2323	1847
1	2210	1848
1	2097	1849
1	1989	1850
1	1886	1851
1	1791	1852
1	1712	1853
1	1644	1854
1	1587	1855
1	1544	1856
1	1515	1857
1	1499	1858
1	1492	1859
1	1492	1860
1	1503	1861
1	1515	1862
1	1530	1863
1	1544	1864
1	1565	1865
1	1572	1866
1	1571	1867
1	1559	1868
1	1541	1869
1	1514	1870
1	1481	1871
1	1445	1872
1	1416	1873
1	1396	1874
1	1373	1875
1	1361	1876
1	1355	1877
1	1357	1878
1	1367	1879
1	1391	1880
1	1418	1881
1	1446	1882
1	1476	1883
1	1501	1884
1	1529	1885
1	1555	1886
1	1575	1887
1	1589	1888
1	1594	1889
1	1584	1890
1	1567	1891
1	1548	1892
1	1521	1893
1	1495	1894
1	1476	1895
1	1463	1896
1	1453	1897
1	1449	1898
1	1443	1899
1	1443	1900
1	1446	1901
1	1449	1902
1	1450	1903
1	1452	1904
1	1455	1905
1	1469	1906
1	1491	1907
1	1517	1908
1	1542	1909
1	1556	1910
1	1555	1911
1	1539	1912
1	1516	1913
1	1494	1914
1	1467	1915
1	1437	1916
1	1416	1917
1	1398	1918
1	1384	1919
1	1464	1940
1	1489	1941
1	1512	1942
1	1555	1943
1	1589	1944
1	1616	1945
1	1634	1946
1	1641	1947
1	1639	1948
1	1634	1949
1	1616	1950
1	1598	1951
1	1582	1952
1	1562	1953
1	1540	1954
1	1518	1955
1	1494	1956
1	1478	1957
1	1475	1958
1	1476	1959
1	1389	1920
1	1402	1921
1	1425	1922
1	1448	1923
1	1472	1924
1	1503	1925
1	1519	1926
1	1530	1927
1	1536	1928
1	1538	1929
1	1530	1930
1	1521	1931
1	1505	1932
1	1488	1933
1	1472	1934
1	1448	1935
1	1431	1936
1	1425	1937
1	1428	1938
1	1440	1939
1	1485	1960
1	1503	1961
1	1529	1962
1	1555	1963
1	1581	1964
1	1606	1965
1	1625	1966
1	1643	1967
1	1652	1968
1	1660	1969
1	1667	1970
1	1661	1971
1	1655	1972
1	1638	1973
1	1621	1974
1	1602	1975
1	1581	1976
1	1564	1977
1	1553	1978
1	1553	1979
1	1555	1980
1	1568	1981
1	1583	1982
1	1599	1983
1	1620	1984
1	1641	1985
1	1652	1986
1	1658	1987
1	1659	1988
1	1656	1989
1	1651	1990
1	1643	1991
1	1634	1992
1	1619	1993
1	1607	1994
1	1603	1995
1	1608	1996
1	1621	1997
1	1636	1998
1	1652	1999
1	1671	2000
1	1688	2001
1	1703	2002
1	1715	2003
1	1731	2004
1	1742	2005
1	1752	2006
1	1762	2007
1	1766	2008
1	1767	2009
1	1762	2010
1	1752	2011
1	1746	2012
1	1731	2013
1	1710	2014
1	1687	2015
1	1659	2016
1	1636	2017
1	1625	2018
1	1623	2019
1	1665	2040
1	1671	2041
1	1684	2042
1	1701	2043
1	1725	2044
1	1754	2045
1	1788	2046
1	1817	2047
1	1841	2048
1	1850	2049
1	1843	2050
1	1825	2051
1	1801	2052
1	1782	2053
1	1763	2054
1	1737	2055
1	1710	2056
1	1683	2057
1	1656	2058
1	1634	2059
1	1623	2020
1	1635	2021
1	1649	2022
1	1665	2023
1	1686	2024
1	1706	2025
1	1726	2026
1	1748	2027
1	1762	2028
1	1764	2029
1	1770	2030
1	1764	2031
1	1751	2032
1	1738	2033
1	1731	2034
1	1722	2035
1	1712	2036
1	1700	2037
1	1682	2038
1	1671	2039
1	1529	2100
1	1557	2101
1	1594	2102
1	1625	2103
1	1647	2104
1	1669	2105
1	1676	2106
1	1678	2107
1	1672	2108
1	1660	2109
1	1643	2110
1	1621	2111
1	1599	2112
1	1576	2113
1	1551	2114
1	1529	2115
1	1512	2116
1	1503	2117
1	1502	2118
1	1492	2119
1	1673	2080
1	1684	2081
1	1689	2082
1	1695	2083
1	1689	2084
1	1677	2085
1	1664	2086
1	1652	2087
1	1634	2088
1	1612	2089
1	1593	2090
1	1563	2091
1	1536	2092
1	1515	2093
1	1498	2094
1	1487	2095
1	1481	2096
1	1486	2097
1	1494	2098
1	1505	2099
1	1634	2060
1	1638	2061
1	1647	2062
1	1660	2063
1	1682	2064
1	1710	2065
1	1737	2066
1	1753	2067
1	1764	2068
1	1769	2069
1	1754	2070
1	1733	2071
1	1703	2072
1	1674	2073
1	1651	2074
1	1643	2075
1	1636	2076
1	1639	2077
1	1647	2078
1	1660	2079
1	1494	2120
1	1498	2121
1	1512	2122
1	1530	2123
1	1548	2124
1	1556	2125
1	1561	2126
1	1562	2127
1	1563	2128
1	1557	2129
1	1551	2130
1	1542	2131
1	1528	2132
1	1503	2133
1	1481	2134
1	1468	2135
1	1458	2136
1	1461	2137
1	1459	2138
1	1476	2139
1	1477	2140
1	1494	2141
1	1512	2142
1	1533	2143
1	1557	2144
1	1581	2145
1	1598	2146
1	1608	2147
1	1612	2148
1	1610	2149
1	1607	2150
1	1592	2151
1	1578	2152
1	1560	2153
1	1554	2154
1	1540	2155
1	1529	2156
1	1525	2157
1	1528	2158
1	1536	2159
1	1551	2160
1	1569	2161
1	1590	2162
1	1606	2163
1	1608	2164
1	1609	2165
1	1599	2166
1	1590	2167
1	1585	2168
1	1582	2169
1	1581	2170
1	1575	2171
1	1567	2172
1	1558	2173
1	1554	2174
1	1543	2175
1	1539	2176
1	1546	2177
1	1558	2178
1	1575	2179
1	1593	2180
1	1607	2181
1	1619	2182
1	1632	2183
1	1642	2184
1	1651	2185
1	1656	2186
1	1656	2187
1	1647	2188
1	1635	2189
1	1613	2190
1	1590	2191
1	1568	2192
1	1553	2193
1	1536	2194
1	1527	2195
1	1521	2196
1	1525	2197
1	1534	2198
1	1542	2199
1	1557	2200
1	1579	2201
1	1599	2202
1	1626	2203
1	1656	2204
1	1674	2205
1	1690	2206
1	1701	2207
1	1705	2208
1	1701	2209
1	1693	2210
1	1673	2211
1	1651	2212
1	1631	2213
1	1616	2214
1	1607	2215
1	1595	2216
1	1583	2217
1	1571	2218
1	1560	2219
1	1548	2220
1	1543	2221
1	1550	2222
1	1561	2223
1	1581	2224
1	1607	2225
1	1625	2226
1	1647	2227
1	1664	2228
1	1674	2229
1	1677	2230
1	1672	2231
1	1661	2232
1	1651	2233
1	1635	2234
1	1618	2235
1	1607	2236
1	1608	2237
1	1621	2238
1	1634	2239
1	1655	2240
1	1668	2241
1	1674	2242
1	1688	2243
1	1692	2244
1	1697	2245
1	1697	2246
1	1690	2247
1	1683	2248
1	1665	2249
1	1638	2250
1	1608	2251
1	1584	2252
1	1566	2253
1	1551	2254
1	1544	2255
1	1542	2256
1	1544	2257
1	1561	2258
1	1581	2259
1	1598	2260
1	1620	2261
1	1636	2262
1	1653	2263
1	1664	2264
1	1670	2265
1	1685	2266
1	1698	2267
1	1710	2268
1	1712	2269
1	1711	2270
1	1692	2271
1	1670	2272
1	1648	2273
1	1624	2274
1	1598	2275
1	1579	2276
1	1561	2277
1	1553	2278
1	1552	2279
1	1555	2280
1	1567	2281
1	1590	2282
1	1610	2283
1	1632	2284
1	1654	2285
1	1672	2286
1	1690	2287
1	1710	2288
1	1716	2289
1	1716	2290
1	1710	2291
1	1697	2292
1	1674	2293
1	1647	2294
1	1611	2295
1	1584	2296
1	1561	2297
1	1548	2298
1	1542	2299
1	1552	2300
1	1564	2301
1	1583	2302
1	1609	2303
1	1642	2304
1	1670	2305
1	1692	2306
1	1710	2307
1	1712	2308
1	1712	2309
1	1698	2310
1	1686	2311
1	1673	2312
1	1659	2313
1	1643	2314
1	1630	2315
1	1613	2316
1	1607	2317
1	1607	2318
1	1611	2319
1	1623	2320
1	1643	2321
1	1664	2322
1	1690	2323
1	1712	2324
1	1724	2325
1	1737	2326
1	1746	2327
1	1751	2328
1	1739	2329
1	1719	2330
1	1688	2331
1	1660	2332
1	1634	2333
1	1613	2334
1	1595	2335
1	1581	2336
1	1572	2337
1	1579	2338
1	1593	2339
1	1611	2340
1	1634	2341
1	1650	2342
1	1661	2343
1	1672	2344
1	1686	2345
1	1706	2346
1	1725	2347
1	1737	2348
1	1742	2349
1	1733	2350
1	1713	2351
1	1697	2352
1	1674	2353
1	1650	2354
1	1620	2355
1	1595	2356
1	1580	2357
1	1566	2358
1	1557	2359
1	1566	2360
1	1573	2361
1	1589	2362
1	1614	2363
1	1648	2364
1	1682	2365
1	1704	2366
1	1716	2367
1	1716	2368
1	1712	2369
1	1700	2370
1	1686	2371
1	1671	2372
1	1660	2373
1	1649	2374
1	1649	2375
1	1647	2376
1	1651	2377
1	1651	2378
1	1646	2379
1	1634	2380
1	1627	2381
1	1631	2382
1	1642	2383
1	1660	2384
1	1679	2385
1	1701	2386
1	1724	2387
1	1740	2388
1	1748	2389
1	1751	2390
1	1744	2391
1	1733	2392
1	1712	2393
1	1690	2394
1	1667	2395
1	1646	2396
1	1626	2397
1	1609	2398
1	1598	2399
1	1607	2400
1	1625	2401
1	1651	2402
1	1676	2403
1	1707	2404
1	1743	2405
1	1773	2406
1	1793	2407
1	1803	2408
1	1801	2409
1	1791	2410
1	1773	2411
1	1756	2412
1	1737	2413
1	1711	2414
1	1682	2415
1	1660	2416
1	1658	2417
1	1656	2418
1	1656	2419
1	1665	2420
1	1670	2421
1	1674	2422
1	1684	2423
1	1695	2424
1	1712	2425
1	1733	2426
1	1751	2427
1	1769	2428
1	1782	2429
1	1781	2430
1	1775	2431
1	1764	2432
1	1750	2433
1	1736	2434
1	1726	2435
1	1711	2436
1	1701	2437
1	1693	2438
1	1713	2439
1	1731	2440
1	1764	2441
1	1796	2442
1	1824	2443
1	1843	2444
1	1852	2445
1	1855	2446
1	1848	2447
1	1843	2448
1	1836	2449
1	1821	2450
1	1796	2451
1	1776	2452
1	1752	2453
1	1739	2454
1	1724	2455
1	1712	2456
1	1709	2457
1	1710	2458
1	1712	2459
1	1705	2480
1	1726	2481
1	1746	2482
1	1762	2483
1	1769	2484
1	1778	2485
1	1778	2486
1	1773	2487
1	1762	2488
1	1742	2489
1	1715	2490
1	1696	2491
1	1673	2492
1	1656	2493
1	1643	2494
1	1639	2495
1	1634	2496
1	1634	2497
1	1645	2498
1	1663	2499
1	1715	2460
1	1726	2461
1	1737	2462
1	1743	2463
1	1753	2464
1	1765	2465
1	1773	2466
1	1778	2467
1	1782	2468
1	1785	2469
1	1778	2470
1	1767	2471
1	1751	2472
1	1729	2473
1	1706	2474
1	1684	2475
1	1674	2476
1	1674	2477
1	1679	2478
1	1685	2479
1	1690	2500
1	1726	2501
1	1763	2502
1	1792	2503
1	1824	2504
1	1843	2505
1	1859	2506
1	1877	2507
1	1893	2508
1	1903	2509
1	1913	2510
1	1908	2511
1	1905	2512
1	1895	2513
1	1895	2514
1	1895	2515
1	1900	2516
1	1913	2517
1	1923	2518
1	1940	2519
1	1953	2520
1	1985	2521
1	2024	2522
1	2061	2523
1	2102	2524
1	2149	2525
1	2188	2526
1	2220	2527
1	2247	2528
1	2259	2529
1	2258	2530
1	2251	2531
1	2233	2532
1	2205	2533
1	2183	2534
1	2158	2535
1	2142	2536
1	2133	2537
1	2130	2538
1	2126	2539
1	2131	2540
1	2131	2541
1	2123	2542
1	2105	2543
1	2100	2544
1	2075	2545
1	2058	2546
1	2044	2547
1	2030	2548
1	2019	2549
1	2012	2550
1	2003	2551
1	1998	2552
1	1989	2553
1	1988	2554
1	1998	2555
1	2014	2556
1	2045	2557
1	2081	2558
1	2140	2559
1	2192	2560
1	2261	2561
1	2326	2562
1	2392	2563
1	2452	2564
1	2501	2565
1	2540	2566
1	2589	2567
1	2645	2568
1	2709	2569
1	2778	2570
1	2836	2571
1	2889	2572
1	2931	2573
1	2965	2574
1	2995	2575
1	3012	2576
1	3018	2577
1	3014	2578
1	3003	2579
1	2987	2580
1	2968	2581
1	2952	2582
1	2934	2583
1	2916	2584
1	2891	2585
1	2860	2586
1	2815	2587
1	2757	2588
1	2685	2589
1	2601	2590
1	2514	2591
1	2412	2592
1	2303	2593
1	2195	2594
1	2096	2595
1	2017	2596
1	1949	2597
1	1896	2598
1	1858	2599
1	1834	2600
1	1814	2601
1	1791	2602
1	1779	2603
1	1764	2604
1	1755	2605
1	1746	2606
1	1739	2607
1	1737	2608
1	1734	2609
1	1724	2610
1	1712	2611
1	1701	2612
1	1694	2613
1	1687	2614
1	1688	2615
1	1684	2616
1	1674	2617
1	1665	2618
1	1661	2619
1	1660	2620
1	1657	2621
1	1654	2622
1	1647	2623
1	1643	2624
1	1634	2625
1	1644	2626
1	1656	2627
1	1670	2628
1	1683	2629
1	1690	2630
1	1686	2631
1	1665	2632
1	1644	2633
1	1621	2634
1	1605	2635
1	1581	2636
1	1557	2637
1	1533	2638
1	1521	2639
1	1517	2640
1	1517	2641
1	1527	2642
1	1542	2643
1	1572	2644
1	1609	2645
1	1647	2646
1	1682	2647
1	1703	2648
1	1728	2649
1	1736	2650
1	1737	2651
1	1731	2652
1	1712	2653
1	1692	2654
1	1657	2655
1	1632	2656
1	1607	2657
1	1595	2658
1	1590	2659
1	1594	2660
1	1597	2661
1	1603	2662
1	1609	2663
1	1624	2664
1	1636	2665
1	1651	2666
1	1665	2667
1	1679	2668
1	1694	2669
1	1697	2670
1	1693	2671
1	1683	2672
1	1659	2673
1	1634	2674
1	1607	2675
1	1581	2676
1	1559	2677
1	1551	2678
1	1553	2679
1	1559	2680
1	1578	2681
1	1600	2682
1	1629	2683
1	1654	2684
1	1669	2685
1	1683	2686
1	1686	2687
1	1688	2688
1	1688	2689
1	1697	2690
1	1701	2691
1	1701	2692
1	1690	2693
1	1672	2694
1	1642	2695
1	1618	2696
1	1607	2697
1	1604	2698
1	1616	2699
1	1638	2700
1	1669	2701
1	1701	2702
1	1729	2703
1	1742	2704
1	1755	2705
1	1751	2706
1	1738	2707
1	1718	2708
1	1697	2709
1	1673	2710
1	1654	2711
1	1636	2712
1	1620	2713
1	1603	2714
1	1590	2715
1	1586	2716
1	1592	2717
1	1607	2718
1	1625	2719
1	1649	2720
1	1671	2721
1	1697	2722
1	1719	2723
1	1738	2724
1	1752	2725
1	1764	2726
1	1768	2727
1	1770	2728
1	1770	2729
1	1759	2730
1	1747	2731
1	1730	2732
1	1708	2733
1	1688	2734
1	1677	2735
1	1660	2736
1	1646	2737
1	1649	2738
1	1660	2739
1	1674	2740
1	1695	2741
1	1723	2742
1	1754	2743
1	1790	2744
1	1817	2745
1	1832	2746
1	1843	2747
1	1843	2748
1	1835	2749
1	1825	2750
1	1814	2751
1	1794	2752
1	1777	2753
1	1759	2754
1	1730	2755
1	1699	2756
1	1680	2757
1	1672	2758
1	1675	2759
1	1686	2760
1	1711	2761
1	1743	2762
1	1783	2763
1	1830	2764
1	1871	2765
1	1901	2766
1	1918	2767
1	1924	2768
1	1919	2769
1	1900	2770
1	1878	2771
1	1845	2772
1	1812	2773
1	1776	2774
1	1742	2775
1	1717	2776
1	1700	2777
1	1692	2778
1	1699	2779
1	1719	2780
1	1740	2781
1	1760	2782
1	1781	2783
1	1809	2784
1	1831	2785
1	1849	2786
1	1854	2787
1	1854	2788
1	1845	2789
1	1827	2790
1	1815	2791
1	1797	2792
1	1781	2793
1	1764	2794
1	1751	2795
1	1738	2796
1	1727	2797
1	1728	2798
1	1738	2799
1	1751	2800
1	1765	2801
1	1782	2802
1	1799	2803
1	1815	2804
1	1817	2805
1	1823	2806
1	1830	2807
1	1835	2808
1	1832	2809
1	1822	2810
1	1791	2811
1	1751	2812
1	1714	2813
1	1682	2814
1	1655	2815
1	1639	2816
1	1634	2817
1	1634	2818
1	1639	2819
1	1647	2820
1	1660	2821
1	1683	2822
1	1705	2823
1	1724	2824
1	1745	2825
1	1751	2826
1	1753	2827
1	1746	2828
1	1737	2829
1	1727	2830
1	1711	2831
1	1688	2832
1	1661	2833
1	1629	2834
1	1590	2835
1	1557	2836
1	1529	2837
1	1503	2838
1	1490	2839
1	1494	2840
1	1507	2841
1	1526	2842
1	1557	2843
1	1591	2844
1	1620	2845
1	1647	2846
1	1665	2847
1	1674	2848
1	1673	2849
1	1661	2850
1	1649	2851
1	1636	2852
1	1617	2853
1	1598	2854
1	1581	2855
1	1563	2856
1	1555	2857
1	1554	2858
1	1548	2859
1	1528	2880
1	1547	2881
1	1567	2882
1	1584	2883
1	1597	2884
1	1613	2885
1	1625	2886
1	1634	2887
1	1642	2888
1	1647	2889
1	1649	2890
1	1647	2891
1	1634	2892
1	1619	2893
1	1600	2894
1	1571	2895
1	1542	2896
1	1517	2897
1	1495	2898
1	1482	2899
1	1546	2860
1	1551	2861
1	1564	2862
1	1581	2863
1	1596	2864
1	1605	2865
1	1610	2866
1	1616	2867
1	1616	2868
1	1609	2869
1	1607	2870
1	1598	2871
1	1589	2872
1	1580	2873
1	1568	2874
1	1556	2875
1	1542	2876
1	1529	2877
1	1521	2878
1	1521	2879
1	1485	2900
1	1497	2901
1	1520	2902
1	1551	2903
1	1581	2904
1	1607	2905
1	1629	2906
1	1634	2907
1	1635	2908
1	1631	2909
1	1609	2910
1	1589	2911
1	1571	2912
1	1563	2913
1	1556	2914
1	1561	2915
1	1557	2916
1	1558	2917
1	1553	2918
1	1543	2919
1	1566	2940
1	1571	2941
1	1584	2942
1	1600	2943
1	1615	2944
1	1626	2945
1	1629	2946
1	1628	2947
1	1621	2948
1	1625	2949
1	1620	2950
1	1617	2951
1	1610	2952
1	1602	2953
1	1589	2954
1	1571	2955
1	1564	2956
1	1560	2957
1	1566	2958
1	1578	2959
1	1531	2920
1	1529	2921
1	1533	2922
1	1546	2923
1	1566	2924
1	1579	2925
1	1595	2926
1	1615	2927
1	1634	2928
1	1652	2929
1	1667	2930
1	1674	2931
1	1674	2932
1	1670	2933
1	1658	2934
1	1636	2935
1	1616	2936
1	1592	2937
1	1579	2938
1	1566	2939
1	1594	2960
1	1607	2961
1	1610	2962
1	1608	2963
1	1602	2964
1	1595	2965
1	1594	2966
1	1593	2967
1	1597	2968
1	1603	2969
1	1598	2970
1	1591	2971
1	1583	2972
1	1578	2973
1	1580	2974
1	1585	2975
1	1592	2976
1	1594	2977
1	1603	2978
1	1616	2979
1	1636	2980
1	1661	2981
1	1688	2982
1	1712	2983
1	1727	2984
1	1724	2985
1	1716	2986
1	1699	2987
1	1672	2988
1	1636	2989
1	1608	2990
1	1577	2991
1	1553	2992
1	1533	2993
1	1523	2994
1	1510	2995
1	1503	2996
1	1508	2997
1	1517	2998
1	1530	2999
1	1555	3000
1	1584	3001
1	1621	3002
1	1650	3003
1	1674	3004
1	1694	3005
1	1706	3006
1	1712	3007
1	1716	3008
1	1712	3009
1	1699	3010
1	1681	3011
1	1655	3012
1	1628	3013
1	1603	3014
1	1579	3015
1	1559	3016
1	1545	3017
1	1538	3018
1	1530	3019
1	1539	3020
1	1544	3021
1	1556	3022
1	1576	3023
1	1593	3024
1	1610	3025
1	1628	3026
1	1641	3027
1	1651	3028
1	1661	3029
1	1659	3030
1	1654	3031
1	1643	3032
1	1626	3033
1	1603	3034
1	1582	3035
1	1559	3036
1	1538	3037
1	1531	3038
1	1528	3039
1	1528	3040
1	1543	3041
1	1568	3042
1	1597	3043
1	1624	3044
1	1649	3045
1	1670	3046
1	1680	3047
1	1685	3048
1	1682	3049
1	1669	3050
1	1644	3051
1	1620	3052
1	1595	3053
1	1583	3054
1	1570	3055
1	1559	3056
1	1553	3057
1	1553	3058
1	1559	3059
1	1568	3060
1	1583	3061
1	1607	3062
1	1630	3063
1	1652	3064
1	1682	3065
1	1698	3066
1	1711	3067
1	1719	3068
1	1723	3069
1	1711	3070
1	1682	3071
1	1639	3072
1	1594	3073
1	1555	3074
1	1526	3075
1	1503	3076
1	1500	3077
1	1506	3078
1	1528	3079
1	1556	3080
1	1589	3081
1	1611	3082
1	1633	3083
1	1649	3084
1	1665	3085
1	1674	3086
1	1681	3087
1	1683	3088
1	1683	3089
1	1674	3090
1	1670	3091
1	1660	3092
1	1651	3093
1	1634	3094
1	1616	3095
1	1593	3096
1	1571	3097
1	1550	3098
1	1534	3099
1	1523	3100
1	1520	3101
1	1524	3102
1	1532	3103
1	1549	3104
1	1560	3105
1	1580	3106
1	1597	3107
1	1611	3108
1	1625	3109
1	1646	3110
1	1662	3111
1	1680	3112
1	1686	3113
1	1680	3114
1	1660	3115
1	1634	3116
1	1611	3117
1	1594	3118
1	1582	3119
1	1569	3120
1	1563	3121
1	1561	3122
1	1564	3123
1	1571	3124
1	1593	3125
1	1608	3126
1	1623	3127
1	1634	3128
1	1643	3129
1	1652	3130
1	1651	3131
1	1652	3132
1	1644	3133
1	1633	3134
1	1616	3135
1	1613	3136
1	1620	3137
1	1631	3138
1	1637	3139
1	1652	3140
1	1661	3141
1	1661	3142
1	1680	3143
1	1687	3144
1	1697	3145
1	1701	3146
1	1708	3147
1	1706	3148
1	1699	3149
1	1683	3150
1	1659	3151
1	1634	3152
1	1611	3153
1	1598	3154
1	1594	3155
1	1592	3156
1	1593	3157
1	1607	3158
1	1620	3159
1	1634	3160
1	1649	3161
1	1667	3162
1	1688	3163
1	1710	3164
1	1720	3165
1	1733	3166
1	1738	3167
1	1744	3168
1	1751	3169
1	1764	3170
1	1765	3171
1	1760	3172
1	1751	3173
1	1738	3174
1	1728	3175
1	1712	3176
1	1689	3177
1	1667	3178
1	1649	3179
1	1634	3180
1	1638	3181
1	1650	3182
1	1670	3183
1	1688	3184
1	1724	3185
1	1751	3186
1	1767	3187
1	1775	3188
1	1776	3189
1	1764	3190
1	1751	3191
1	1734	3192
1	1717	3193
1	1699	3194
1	1670	3195
1	1649	3196
1	1631	3197
1	1613	3198
1	1602	3199
1	1600	3200
1	1595	3201
1	1593	3202
1	1594	3203
1	1597	3204
1	1599	3205
1	1607	3206
1	1625	3207
1	1643	3208
1	1661	3209
1	1664	3210
1	1661	3211
1	1660	3212
1	1656	3213
1	1648	3214
1	1642	3215
1	1629	3216
1	1607	3217
1	1594	3218
1	1585	3219
1	1579	3220
1	1575	3221
1	1573	3222
1	1580	3223
1	1584	3224
1	1589	3225
1	1602	3226
1	1620	3227
1	1639	3228
1	1656	3229
1	1674	3230
1	1676	3231
1	1667	3232
1	1652	3233
1	1634	3234
1	1612	3235
1	1597	3236
1	1584	3237
1	1581	3238
1	1579	3239
1	1578	3240
1	1579	3241
1	1579	3242
1	1584	3243
1	1590	3244
1	1600	3245
1	1608	3246
1	1611	3247
1	1616	3248
1	1634	3249
1	1646	3250
1	1659	3251
1	1669	3252
1	1675	3253
1	1670	3254
1	1648	3255
1	1625	3256
1	1593	3257
1	1566	3258
1	1544	3259
1	1663	3280
1	1712	3281
1	1767	3282
1	1836	3283
1	1896	3284
1	1949	3285
1	2005	3286
1	2053	3287
1	2101	3288
1	2140	3289
1	2187	3290
1	2236	3291
1	2278	3292
1	2328	3293
1	2380	3294
1	2440	3295
1	2496	3296
1	2545	3297
1	2597	3298
1	2647	3299
1	1541	3260
1	1544	3261
1	1557	3262
1	1581	3263
1	1605	3264
1	1624	3265
1	1639	3266
1	1646	3267
1	1647	3268
1	1651	3269
1	1642	3270
1	1632	3271
1	1611	3272
1	1593	3273
1	1576	3274
1	1577	3275
1	1579	3276
1	1581	3277
1	1594	3278
1	1625	3279
1	2685	3300
1	2728	3301
1	2768	3302
1	2801	3303
1	2819	3304
1	2830	3305
1	2830	3306
1	2818	3307
1	2799	3308
1	2767	3309
1	2722	3310
1	2662	3311
1	2591	3312
1	2515	3313
1	2432	3314
1	2332	3315
1	2240	3316
1	2147	3317
1	2061	3318
1	1978	3319
1	1914	3320
1	1856	3321
1	1800	3322
1	1763	3323
1	1739	3324
1	1724	3325
1	1717	3326
1	1712	3327
1	1702	3328
1	1690	3329
1	1667	3330
1	1637	3331
1	1611	3332
1	1581	3333
1	1555	3334
1	1541	3335
1	1524	3336
1	1513	3337
1	1504	3338
1	1516	3339
1	1523	3340
1	1538	3341
1	1558	3342
1	1589	3343
1	1623	3344
1	1656	3345
1	1683	3346
1	1702	3347
1	1708	3348
1	1700	3349
1	1696	3350
1	1684	3351
1	1669	3352
1	1652	3353
1	1634	3354
1	1613	3355
1	1592	3356
1	1575	3357
1	1564	3358
1	1561	3359
1	1566	3360
1	1579	3361
1	1594	3362
1	1613	3363
1	1634	3364
1	1660	3365
1	1682	3366
1	1701	3367
1	1715	3368
1	1724	3369
1	1731	3370
1	1733	3371
1	1728	3372
1	1717	3373
1	1712	3374
1	1706	3375
1	1705	3376
1	1715	3377
1	1730	3378
1	1740	3379
1	1752	3380
1	1755	3381
1	1760	3382
1	1763	3383
1	1767	3384
1	1777	3385
1	1788	3386
1	1793	3387
1	1801	3388
1	1803	3389
1	1792	3390
1	1786	3391
1	1777	3392
1	1767	3393
1	1751	3394
1	1737	3395
1	1716	3396
1	1705	3397
1	1704	3398
1	1712	3399
1	1733	3400
1	1764	3401
1	1800	3402
1	1839	3403
1	1869	3404
1	1895	3405
1	1921	3406
1	1946	3407
1	1962	3408
1	1968	3409
1	1974	3410
1	1965	3411
1	1953	3412
1	1945	3413
1	1922	3414
1	1897	3415
1	1870	3416
1	1845	3417
1	1825	3418
1	1808	3419
1	1788	3420
1	1787	3421
1	1796	3422
1	1817	3423
1	1843	3424
1	1881	3425
1	1908	3426
1	1927	3427
1	1936	3428
1	1948	3429
1	1958	3430
1	1971	3431
1	1972	3432
1	1962	3433
1	1944	3434
1	1908	3435
1	1884	3436
1	1860	3437
1	1845	3438
1	1834	3439
1	1836	3440
1	1843	3441
1	1855	3442
1	1886	3443
1	1910	3444
1	1935	3445
1	1960	3446
1	1976	3447
1	1989	3448
1	1994	3449
1	1988	3450
1	1989	3451
1	1989	3452
1	1988	3453
1	1985	3454
1	1979	3455
1	1966	3456
1	1948	3457
1	1944	3458
1	1940	3459
1	1948	3460
1	1963	3461
1	1984	3462
1	2003	3463
1	2026	3464
1	2044	3465
1	2061	3466
1	2078	3467
1	2084	3468
1	2088	3469
1	2093	3470
1	2081	3471
1	2066	3472
1	2052	3473
1	2037	3474
1	2026	3475
1	2013	3476
1	2001	3477
1	1999	3478
1	1999	3479
1	2001	3480
1	2016	3481
1	2030	3482
1	2045	3483
1	2052	3484
1	2068	3485
1	2079	3486
1	2083	3487
1	2084	3488
1	2083	3489
1	2079	3490
1	2076	3491
1	2079	3492
1	2084	3493
1	2088	3494
1	2076	3495
1	2066	3496
1	2055	3497
1	2052	3498
1	2051	3499
1	2055	3500
1	2052	3501
1	2052	3502
1	2052	3503
1	2056	3504
1	2063	3505
1	2070	3506
1	2075	3507
1	2079	3508
1	2080	3509
1	2079	3510
1	2079	3511
1	2079	3512
1	2073	3513
1	2055	3514
1	2048	3515
1	2026	3516
1	2003	3517
1	1976	3518
1	1958	3519
1	1948	3520
1	1949	3521
1	1961	3522
1	1980	3523
1	2008	3524
1	2032	3525
1	2057	3526
1	2084	3527
1	2106	3528
1	2120	3529
1	2142	3530
1	2147	3531
1	2143	3532
1	2131	3533
1	2113	3534
1	2087	3535
1	2057	3536
1	2025	3537
1	2002	3538
1	1985	3539
1	1971	3540
1	1963	3541
1	1963	3542
1	1975	3543
1	1994	3544
1	2025	3545
1	2050	3546
1	2066	3547
1	2078	3548
1	2088	3549
1	2086	3550
1	2073	3551
1	2052	3552
1	2031	3553
1	2015	3554
1	1992	3555
1	1974	3556
1	1955	3557
1	1926	3558
1	1899	3559
1	1842	3580
1	1848	3581
1	1861	3582
1	1877	3583
1	1899	3584
1	1917	3585
1	1927	3586
1	1935	3587
1	1935	3588
1	1927	3589
1	1932	3590
1	1922	3591
1	1912	3592
1	1903	3593
1	1893	3594
1	1886	3595
1	1872	3596
1	1868	3597
1	1863	3598
1	1867	3599
1	1891	3560
1	1877	3561
1	1871	3562
1	1873	3563
1	1881	3564
1	1895	3565
1	1908	3566
1	1925	3567
1	1941	3568
1	1952	3569
1	1950	3570
1	1952	3571
1	1948	3572
1	1936	3573
1	1919	3574
1	1908	3575
1	1889	3576
1	1867	3577
1	1850	3578
1	1842	3579
1	1869	3600
1	1875	3601
1	1890	3602
1	1909	3603
1	1927	3604
1	1957	3605
1	1974	3606
1	1988	3607
1	1994	3608
1	1999	3609
1	2000	3610
1	1988	3611
1	1966	3612
1	1939	3613
1	1904	3614
1	1856	3615
1	1818	3616
1	1790	3617
1	1772	3618
1	1764	3619
1	1777	3620
1	1788	3621
1	1798	3622
1	1818	3623
1	1837	3624
1	1860	3625
1	1892	3626
1	1922	3627
1	1952	3628
1	1977	3629
1	1993	3630
1	2000	3631
1	1989	3632
1	1959	3633
1	1908	3634
1	1859	3635
1	1795	3636
1	1740	3637
1	1703	3638
1	1686	3639
1	1767	3660
1	1774	3661
1	1785	3662
1	1791	3663
1	1793	3664
1	1814	3665
1	1817	3666
1	1831	3667
1	1847	3668
1	1863	3669
1	1875	3670
1	1881	3671
1	1872	3672
1	1860	3673
1	1845	3674
1	1827	3675
1	1814	3676
1	1791	3677
1	1767	3678
1	1747	3679
1	1665	3640
1	1669	3641
1	1684	3642
1	1706	3643
1	1728	3644
1	1752	3645
1	1778	3646
1	1803	3647
1	1826	3648
1	1842	3649
1	1862	3650
1	1869	3651
1	1868	3652
1	1859	3653
1	1849	3654
1	1830	3655
1	1809	3656
1	1790	3657
1	1780	3658
1	1773	3659
1	1742	3680
1	1739	3681
1	1751	3682
1	1773	3683
1	1803	3684
1	1841	3685
1	1866	3686
1	1885	3687
1	1897	3688
1	1898	3689
1	1891	3690
1	1880	3691
1	1861	3692
1	1838	3693
1	1799	3694
1	1773	3695
1	1738	3696
1	1705	3697
1	1676	3698
1	1656	3699
1	1647	3700
1	1648	3701
1	1660	3702
1	1683	3703
1	1708	3704
1	1737	3705
1	1764	3706
1	1792	3707
1	1815	3708
1	1817	3709
1	1818	3710
1	1803	3711
1	1789	3712
1	1774	3713
1	1761	3714
1	1749	3715
1	1738	3716
1	1724	3717
1	1715	3718
1	1712	3719
1	1710	3720
1	1715	3721
1	1726	3722
1	1737	3723
1	1746	3724
1	1764	3725
1	1775	3726
1	1787	3727
1	1793	3728
1	1795	3729
1	1794	3730
1	1791	3731
1	1788	3732
1	1777	3733
1	1764	3734
1	1739	3735
1	1723	3736
1	1707	3737
1	1695	3738
1	1686	3739
1	1686	3740
1	1692	3741
1	1701	3742
1	1728	3743
1	1746	3744
1	1764	3745
1	1773	3746
1	1782	3747
1	1783	3748
1	1780	3749
1	1766	3750
1	1759	3751
1	1742	3752
1	1733	3753
1	1723	3754
1	1716	3755
1	1710	3756
1	1701	3757
1	1698	3758
1	1685	3759
1	1675	3760
1	1674	3761
1	1683	3762
1	1693	3763
1	1710	3764
1	1724	3765
1	1740	3766
1	1760	3767
1	1775	3768
1	1791	3769
1	1808	3770
1	1811	3771
1	1801	3772
1	1787	3773
1	1770	3774
1	1751	3775
1	1737	3776
1	1723	3777
1	1712	3778
1	1711	3779
1	1672	3800
1	1668	3801
1	1667	3802
1	1670	3803
1	1675	3804
1	1682	3805
1	1689	3806
1	1705	3807
1	1718	3808
1	1734	3809
1	1738	3810
1	1746	3811
1	1748	3812
1	1738	3813
1	1726	3814
1	1712	3815
1	1689	3816
1	1665	3817
1	1651	3818
1	1636	3819
1	1706	3780
1	1710	3781
1	1711	3782
1	1713	3783
1	1715	3784
1	1721	3785
1	1717	3786
1	1712	3787
1	1710	3788
1	1708	3789
1	1703	3790
1	1699	3791
1	1703	3792
1	1712	3793
1	1723	3794
1	1721	3795
1	1718	3796
1	1712	3797
1	1696	3798
1	1681	3799
1	1625	3820
1	1620	3821
1	1628	3822
1	1643	3823
1	1664	3824
1	1692	3825
1	1724	3826
1	1757	3827
1	1782	3828
1	1792	3829
1	1796	3830
1	1782	3831
1	1759	3832
1	1728	3833
1	1697	3834
1	1664	3835
1	1637	3836
1	1613	3837
1	1607	3838
1	1611	3839
1	1629	3840
1	1644	3841
1	1660	3842
1	1683	3843
1	1709	3844
1	1736	3845
1	1759	3846
1	1778	3847
1	1795	3848
1	1817	3849
1	1824	3850
1	1819	3851
1	1803	3852
1	1782	3853
1	1762	3854
1	1731	3855
1	1712	3856
1	1693	3857
1	1680	3858
1	1676	3859
1	1684	3860
1	1688	3861
1	1700	3862
1	1723	3863
1	1751	3864
1	1780	3865
1	1803	3866
1	1819	3867
1	1830	3868
1	1827	3869
1	1815	3870
1	1800	3871
1	1788	3872
1	1775	3873
1	1762	3874
1	1747	3875
1	1728	3876
1	1710	3877
1	1696	3878
1	1686	3879
1	1682	3880
1	1685	3881
1	1694	3882
1	1708	3883
1	1723	3884
1	1739	3885
1	1771	3886
1	1817	3887
1	1848	3888
1	1869	3889
1	1886	3890
1	1886	3891
1	1880	3892
1	1867	3893
1	1851	3894
1	1836	3895
1	1817	3896
1	1801	3897
1	1791	3898
1	1786	3899
1	1779	3900
1	1776	3901
1	1772	3902
1	1770	3903
1	1769	3904
1	1779	3905
1	1779	3906
1	1778	3907
1	1772	3908
1	1762	3909
1	1748	3910
1	1737	3911
1	1729	3912
1	1733	3913
1	1742	3914
1	1743	3915
1	1746	3916
1	1741	3917
1	1737	3918
1	1729	3919
1	1728	3920
1	1722	3921
1	1712	3922
1	1700	3923
1	1688	3924
1	1677	3925
1	1673	3926
1	1679	3927
1	1683	3928
1	1692	3929
1	1700	3930
1	1707	3931
1	1711	3932
1	1711	3933
1	1703	3934
1	1693	3935
1	1681	3936
1	1661	3937
1	1651	3938
1	1652	3939
1	1646	3940
1	1646	3941
1	1650	3942
1	1663	3943
1	1682	3944
1	1702	3945
1	1725	3946
1	1742	3947
1	1752	3948
1	1755	3949
1	1756	3950
1	1750	3951
1	1738	3952
1	1718	3953
1	1699	3954
1	1668	3955
1	1634	3956
1	1597	3957
1	1566	3958
1	1544	3959
1	1529	3960
1	1529	3961
1	1541	3962
1	1564	3963
1	1592	3964
1	1633	3965
1	1660	3966
1	1688	3967
1	1711	3968
1	1721	3969
1	1724	3970
1	1715	3971
1	1698	3972
1	1673	3973
1	1647	3974
1	1611	3975
1	1592	3976
1	1572	3977
1	1556	3978
1	1552	3979
1	1556	3980
1	1563	3981
1	1574	3982
1	1586	3983
1	1607	3984
1	1620	3985
1	1633	3986
1	1641	3987
1	1648	3988
1	1655	3989
1	1657	3990
1	1661	3991
1	1669	3992
1	1670	3993
1	1664	3994
1	1668	3995
1	1662	3996
1	1659	3997
1	1655	3998
1	1656	3999
1	1664	4000
1	1686	4001
1	1712	4002
1	1746	4003
1	1782	4004
1	1822	4005
1	1856	4006
1	1901	4006
1	1953	4008
1	2013	4009
1	2083	4010
1	2151	4011
1	2213	4012
1	2277	4013
1	2336	4014
1	2386	4014
1	2435	4016
1	2489	4017
1	2534	4018
1	2585	4019
1	2640	4020
1	2690	4021
1	2735	4022
1	2777	4022
1	2811	4024
1	2845	4025
1	2866	4026
1	2881	4027
1	2884	4028
1	2869	4029
1	2843	4030
1	2801	4030
1	2749	4032
1	2688	4033
1	2621	4034
1	2516	4035
1	2421	4036
1	2297	4037
1	2171	4038
1	2052	4038
1	1949	4040
1	1860	4041
1	1778	4042
1	1701	4043
1	1651	4044
1	1615	4045
1	1593	4046
1	1581	4046
1	1582	4048
1	1590	4049
1	1599	4050
1	1616	4051
1	1632	4052
1	1634	4053
1	1629	4054
1	1615	4054
1	1594	4056
1	1575	4057
1	1561	4058
1	1550	4059
1	1537	4060
1	1529	4061
1	1524	4062
1	1525	4062
1	1532	4064
1	1541	4065
1	1544	4066
1	1556	4067
1	1571	4068
1	1584	4069
1	1601	4070
1	1599	4070
1	1590	4072
1	1572	4073
1	1546	4074
1	1517	4075
1	1482	4076
1	1450	4077
1	1425	4078
1	1404	4078
1	1382	4080
1	1381	4081
1	1396	4082
1	1415	4083
1	1441	4084
1	1480	4085
1	1519	4086
1	1556	4086
1	1592	4088
1	1611	4089
1	1620	4090
1	1611	4091
1	1592	4092
1	1558	4093
1	1529	4094
1	1491	4094
1	1464	4096
1	1438	4097
1	1421	4098
1	1412	4099
1	1410	4100
1	1412	4101
1	1422	4102
1	1436	4103
1	1459	4104
1	1486	4105
1	1505	4106
1	1521	4107
1	1532	4108
1	1538	4109
1	1531	4110
1	1529	4111
1	1521	4112
1	1513	4113
1	1504	4114
1	1503	4115
1	1503	4116
1	1495	4117
1	1495	4118
1	1492	4119
1	1492	4120
1	1502	4121
1	1515	4122
1	1529	4123
1	1542	4124
1	1555	4125
1	1569	4126
1	1590	4127
1	1609	4128
1	1629	4129
1	1649	4130
1	1660	4131
1	1660	4132
1	1652	4133
1	1632	4134
1	1603	4135
1	1568	4136
1	1529	4137
1	1503	4138
1	1476	4139
1	1461	4140
1	1452	4141
1	1458	4142
1	1475	4143
1	1503	4144
1	1537	4145
1	1571	4146
1	1599	4147
1	1623	4148
1	1641	4149
1	1646	4150
1	1644	4151
1	1634	4152
1	1613	4153
1	1596	4154
1	1573	4155
1	1560	4156
1	1549	4157
1	1534	4158
1	1521	4159
1	1517	4160
1	1509	4161
1	1508	4162
1	1514	4163
1	1528	4164
1	1548	4165
1	1576	4166
1	1611	4167
1	1651	4168
1	1686	4169
1	1714	4170
1	1730	4171
1	1734	4172
1	1719	4173
1	1699	4174
1	1677	4175
1	1644	4176
1	1607	4177
1	1580	4178
1	1561	4179
1	1554	4180
1	1559	4181
1	1575	4182
1	1593	4183
1	1622	4184
1	1647	4185
1	1675	4186
1	1700	4187
1	1716	4188
1	1727	4189
1	1739	4190
1	1744	4191
1	1742	4192
1	1740	4193
1	1737	4194
1	1724	4195
1	1710	4196
1	1692	4197
1	1674	4198
1	1660	4199
1	1649	4200
1	1647	4201
1	1660	4202
1	1686	4203
1	1714	4204
1	1754	4205
1	1783	4206
1	1811	4207
1	1831	4208
1	1849	4209
1	1864	4210
1	1875	4211
1	1872	4212
1	1859	4213
1	1838	4214
1	1798	4215
1	1766	4216
1	1738	4217
1	1710	4218
1	1688	4219
1	1685	4220
1	1681	4221
1	1682	4222
1	1682	4223
1	1686	4224
1	1694	4225
1	1712	4226
1	1737	4227
1	1754	4228
1	1772	4229
1	1782	4230
1	1791	4231
1	1800	4232
1	1801	4233
1	1796	4234
1	1786	4235
1	1764	4236
1	1738	4237
1	1724	4238
1	1717	4239
1	1711	4240
1	1712	4241
1	1711	4242
1	1712	4243
1	1712	4244
1	1719	4245
1	1731	4246
1	1741	4247
1	1751	4248
1	1761	4249
1	1767	4250
1	1767	4251
1	1763	4252
1	1762	4253
1	1751	4254
1	1739	4255
1	1723	4256
1	1698	4257
1	1671	4258
1	1648	4259
1	1491	4280
1	1499	4281
1	1517	4282
1	1546	4283
1	1574	4284
1	1594	4285
1	1603	4286
1	1608	4287
1	1618	4288
1	1619	4289
1	1610	4290
1	1605	4291
1	1593	4292
1	1580	4293
1	1566	4294
1	1557	4295
1	1547	4296
1	1538	4297
1	1524	4298
1	1519	4299
1	1508	4300
1	1503	4301
1	1494	4302
1	1489	4303
1	1490	4304
1	1490	4305
1	1502	4306
1	1511	4307
1	1525	4308
1	1538	4309
1	1555	4310
1	1567	4311
1	1579	4312
1	1581	4313
1	1577	4314
1	1556	4315
1	1530	4316
1	1494	4317
1	1459	4318
1	1436	4319
1	1620	4260
1	1605	4261
1	1597	4262
1	1597	4263
1	1607	4264
1	1626	4265
1	1645	4266
1	1671	4267
1	1688	4268
1	1697	4269
1	1701	4270
1	1699	4271
1	1691	4272
1	1673	4273
1	1647	4274
1	1607	4275
1	1579	4276
1	1542	4277
1	1510	4278
1	1494	4279
1	1441	4340
1	1427	4341
1	1420	4342
1	1412	4343
1	1422	4344
1	1436	4345
1	1450	4346
1	1476	4347
1	1500	4348
1	1524	4349
1	1541	4350
1	1559	4351
1	1576	4352
1	1579	4353
1	1574	4354
1	1563	4355
1	1542	4356
1	1521	4357
1	1508	4358
1	1499	4359
1	1407	4320
1	1397	4321
1	1384	4322
1	1384	4323
1	1399	4324
1	1420	4325
1	1438	4326
1	1463	4327
1	1490	4328
1	1513	4329
1	1542	4330
1	1571	4331
1	1587	4332
1	1597	4333
1	1596	4334
1	1572	4335
1	1551	4336
1	1524	4337
1	1492	4338
1	1462	4339
1	1490	4360
1	1492	4361
1	1498	4362
1	1505	4363
1	1518	4364
1	1529	4365
1	1549	4366
1	1579	4367
1	1605	4368
1	1630	4369
1	1647	4370
1	1647	4371
1	1635	4372
1	1616	4373
1	1592	4374
1	1564	4375
1	1537	4376
1	1508	4377
1	1486	4378
1	1474	4379
1	1463	4380
1	1474	4381
1	1492	4382
1	1516	4383
1	1538	4384
1	1560	4385
1	1576	4386
1	1584	4387
1	1591	4388
1	1589	4389
1	1586	4390
1	1581	4391
1	1572	4392
1	1557	4393
1	1542	4394
1	1517	4395
1	1499	4396
1	1484	4397
1	1472	4398
1	1474	4399
1	1485	4400
1	1503	4401
1	1525	4402
1	1551	4403
1	1580	4404
1	1605	4405
1	1626	4406
1	1638	4407
1	1649	4408
1	1651	4409
1	1638	4410
1	1628	4411
1	1612	4412
1	1600	4413
1	1584	4414
1	1572	4415
1	1554	4416
1	1535	4417
1	1521	4418
1	1509	4419
1	1503	4420
1	1503	4421
1	1507	4422
1	1521	4423
1	1543	4424
1	1572	4425
1	1598	4426
1	1626	4427
1	1647	4428
1	1655	4429
1	1661	4430
1	1659	4431
1	1642	4432
1	1620	4433
1	1597	4434
1	1574	4435
1	1549	4436
1	1521	4437
1	1507	4438
1	1500	4439
1	1498	4440
1	1494	4441
1	1492	4442
1	1494	4443
1	1502	4444
1	1517	4445
1	1531	4446
1	1549	4447
1	1566	4448
1	1593	4449
1	1608	4450
1	1625	4451
1	1633	4452
1	1634	4453
1	1634	4454
1	1618	4455
1	1607	4456
1	1586	4457
1	1564	4458
1	1540	4459
1	1520	4460
1	1495	4461
1	1479	4462
1	1479	4463
1	1492	4464
1	1517	4465
1	1555	4466
1	1596	4467
1	1634	4468
1	1665	4469
1	1685	4470
1	1686	4471
1	1674	4472
1	1652	4473
1	1622	4474
1	1593	4475
1	1557	4476
1	1523	4477
1	1494	4478
1	1477	4479
1	1475	4480
1	1482	4481
1	1503	4482
1	1526	4483
1	1546	4484
1	1562	4485
1	1580	4486
1	1599	4487
1	1613	4488
1	1626	4489
1	1634	4490
1	1631	4491
1	1628	4492
1	1620	4493
1	1608	4494
1	1602	4495
1	1595	4496
1	1589	4497
1	1574	4498
1	1566	4499
1	1555	4500
1	1553	4501
1	1555	4502
1	1573	4503
1	1593	4504
1	1616	4505
1	1634	4506
1	1657	4507
1	1673	4508
1	1677	4509
1	1665	4510
1	1642	4511
1	1620	4512
1	1589	4513
1	1561	4514
1	1530	4515
1	1516	4516
1	1503	4517
1	1502	4518
1	1506	4519
1	1521	4520
1	1530	4521
1	1541	4522
1	1550	4523
1	1554	4524
1	1559	4525
1	1571	4526
1	1587	4527
1	1608	4528
1	1633	4529
1	1645	4530
1	1656	4531
1	1664	4532
1	1668	4533
1	1665	4534
1	1661	4535
1	1651	4536
1	1625	4537
1	1604	4538
1	1587	4539
1	1556	4540
1	1540	4541
1	1530	4542
1	1531	4543
1	1538	4544
1	1544	4545
1	1554	4546
1	1564	4547
1	1574	4548
1	1582	4549
1	1586	4550
1	1590	4551
1	1586	4552
1	1581	4553
1	1577	4554
1	1562	4555
1	1546	4556
1	1534	4557
1	1525	4558
1	1517	4559
1	1504	4560
1	1503	4561
1	1510	4562
1	1520	4563
1	1536	4564
1	1558	4565
1	1580	4566
1	1594	4567
1	1600	4568
1	1594	4569
1	1583	4570
1	1571	4571
1	1555	4572
1	1535	4573
1	1515	4574
1	1490	4575
1	1476	4576
1	1467	4577
1	1463	4578
1	1461	4579
1	1467	4580
1	1474	4581
1	1489	4582
1	1512	4583
1	1539	4584
1	1562	4585
1	1584	4586
1	1600	4587
1	1611	4588
1	1620	4589
1	1619	4590
1	1615	4591
1	1611	4592
1	1608	4593
1	1603	4594
1	1598	4595
1	1585	4596
1	1574	4597
1	1555	4598
1	1550	4599
1	1542	4600
1	1539	4601
1	1541	4602
1	1546	4603
1	1555	4604
1	1563	4605
1	1577	4606
1	1596	4607
1	1613	4608
1	1629	4609
1	1639	4610
1	1638	4611
1	1633	4612
1	1615	4613
1	1596	4614
1	1575	4615
1	1555	4616
1	1537	4617
1	1521	4618
1	1515	4619
1	1513	4620
1	1524	4621
1	1549	4622
1	1580	4623
1	1610	4624
1	1655	4625
1	1687	4626
1	1712	4627
1	1728	4628
1	1738	4629
1	1746	4630
1	1751	4631
1	1753	4632
1	1751	4633
1	1743	4634
1	1713	4635
1	1686	4636
1	1647	4637
1	1595	4638
1	1537	4639
1	1500	4660
1	1487	4661
1	1479	4662
1	1485	4663
1	1501	4664
1	1515	4665
1	1526	4666
1	1540	4667
1	1555	4668
1	1571	4669
1	1591	4670
1	1598	4671
1	1597	4672
1	1593	4673
1	1579	4674
1	1555	4675
1	1528	4676
1	1496	4677
1	1462	4678
1	1430	4679
1	1490	4640
1	1451	4641
1	1427	4642
1	1417	4643
1	1434	4644
1	1465	4645
1	1503	4646
1	1546	4647
1	1584	4648
1	1620	4649
1	1643	4650
1	1652	4651
1	1657	4652
1	1647	4653
1	1634	4654
1	1608	4655
1	1583	4656
1	1560	4657
1	1543	4658
1	1521	4659
1	1401	4680
1	1399	4681
1	1412	4682
1	1438	4683
1	1474	4684
1	1518	4685
1	1556	4686
1	1592	4687
1	1621	4688
1	1649	4689
1	1664	4690
1	1674	4691
1	1674	4692
1	1661	4693
1	1636	4694
1	1592	4695
1	1560	4696
1	1538	4697
1	1525	4698
1	1515	4699
1	1516	4700
1	1518	4701
1	1525	4702
1	1531	4703
1	1546	4704
1	1566	4705
1	1591	4706
1	1616	4707
1	1636	4708
1	1650	4709
1	1647	4710
1	1636	4711
1	1618	4712
1	1586	4713
1	1549	4714
1	1510	4715
1	1475	4716
1	1437	4717
1	1412	4718
1	1403	4719
1	1405	4720
1	1424	4721
1	1453	4722
1	1498	4723
1	1544	4724
1	1593	4725
1	1630	4726
1	1669	4727
1	1701	4728
1	1729	4729
1	1760	4730
1	1787	4731
1	1816	4732
1	1838	4733
1	1857	4734
1	1878	4735
1	1898	4736
1	1911	4737
1	1931	4738
1	1968	4739
1	2025	4740
1	2095	4741
1	2174	4742
1	2266	4743
1	2363	4744
1	2462	4745
1	2540	4746
1	2609	4747
1	2669	4748
1	2717	4749
1	2748	4750
1	2770	4751
1	2790	4752
1	2802	4753
1	2801	4754
1	2779	4755
1	2748	4756
1	2706	4757
1	2653	4758
1	2591	4759
1	2535	4760
1	2473	4761
1	2404	4762
1	2343	4763
1	2281	4764
1	2214	4765
1	2157	4766
1	2099	4767
1	2038	4768
1	1976	4769
1	1903	4770
1	1854	4771
1	1785	4772
1	1712	4773
1	1636	4774
1	1572	4775
1	1504	4776
1	1451	4777
1	1405	4778
1	1371	4779
1	1351	4780
1	1350	4781
1	1359	4782
1	1382	4783
1	1414	4784
1	1446	4785
1	1476	4786
1	1512	4787
1	1544	4788
1	1563	4789
1	1572	4790
1	1560	4791
1	1539	4792
1	1514	4793
1	1490	4794
1	1462	4795
1	1428	4796
1	1404	4797
1	1384	4798
1	1374	4799
1	1371	4800
1	1372	4801
1	1384	4802
1	1399	4803
1	1421	4804
1	1439	4805
1	1459	4806
1	1472	4807
1	1476	4808
1	1478	4809
1	1476	4810
1	1475	4811
1	1472	4812
1	1467	4813
1	1461	4814
1	1441	4815
1	1431	4816
1	1423	4817
1	1413	4818
1	1407	4819
1	1407	4820
1	1407	4821
1	1409	4822
1	1413	4823
1	1424	4824
1	1440	4825
1	1458	4826
1	1477	4827
1	1499	4828
1	1515	4829
1	1523	4830
1	1528	4831
1	1523	4832
1	1508	4833
1	1490	4834
1	1475	4835
1	1450	4836
1	1423	4837
1	1400	4838
1	1381	4839
1	1366	4840
1	1355	4841
1	1350	4842
1	1351	4843
1	1359	4844
1	1372	4845
1	1389	4846
1	1414	4847
1	1441	4848
1	1474	4849
1	1499	4850
1	1523	4851
1	1545	4852
1	1566	4853
1	1585	4854
1	1589	4855
1	1584	4856
1	1581	4857
1	1580	4858
1	1581	4859
1	1577	4860
1	1577	4861
1	1580	4862
1	1582	4863
1	1590	4864
1	1607	4865
1	1618	4866
1	1634	4867
1	1652	4868
1	1662	4869
1	1668	4870
1	1670	4871
1	1669	4872
1	1664	4873
1	1654	4874
1	1634	4875
1	1622	4876
1	1608	4877
1	1602	4878
1	1597	4879
1	1595	4880
1	1590	4881
1	1593	4882
1	1605	4883
1	1623	4884
1	1650	4885
1	1682	4886
1	1711	4887
1	1738	4888
1	1752	4889
1	1746	4890
1	1742	4891
1	1733	4892
1	1716	4893
1	1698	4894
1	1682	4895
1	1656	4896
1	1631	4897
1	1607	4898
1	1587	4899
1	1570	4900
1	1561	4901
1	1563	4902
1	1575	4903
1	1597	4904
1	1625	4905
1	1659	4906
1	1697	4907
1	1734	4908
1	1762	4909
1	1789	4910
1	1796	4911
1	1800	4912
1	1798	4913
1	1792	4914
1	1776	4915
1	1755	4916
1	1730	4917
1	1706	4918
1	1685	4919
1	1660	4920
1	1652	4921
1	1650	4922
1	1657	4923
1	1675	4924
1	1710	4925
1	1744	4926
1	1778	4927
1	1817	4928
1	1845	4929
1	1867	4930
1	1875	4931
1	1872	4932
1	1863	4933
1	1845	4934
1	1814	4935
1	1791	4936
1	1764	4937
1	1739	4938
1	1716	4939
1	1712	4940
1	1703	4941
1	1691	4942
1	1688	4943
1	1697	4944
1	1693	4945
1	1698	4946
1	1707	4947
1	1714	4948
1	1725	4949
1	1738	4950
1	1751	4951
1	1751	4952
1	1736	4953
1	1715	4954
1	1692	4955
1	1669	4956
1	1647	4957
1	1634	4958
1	1625	4959
1	1620	4960
1	1618	4961
1	1621	4962
1	1625	4963
1	1625	4964
1	1620	4965
1	1620	4966
1	1630	4967
1	1643	4968
1	1656	4969
1	1674	4970
1	1685	4971
1	1687	4972
1	1689	4973
1	1686	4974
1	1670	4975
1	1644	4976
1	1619	4977
1	1597	4978
1	1581	4979
1	1572	4980
1	1580	4981
1	1597	4982
1	1622	4983
1	1645	4984
1	1668	4985
1	1686	4986
1	1703	4987
1	1720	4988
1	1734	4989
1	1738	4990
1	1733	4991
1	1715	4992
1	1691	4993
1	1663	4994
1	1626	4995
1	1602	4996
1	1569	4997
1	1536	4998
1	1512	4999
1	1497	5000
1	1490	5001
1	1502	5002
1	1520	5003
1	1546	5004
1	1575	5005
1	1602	5006
1	1623	5007
1	1634	5008
1	1638	5009
1	1639	5010
1	1639	5011
1	1634	5012
1	1626	5013
1	1607	5014
1	1589	5015
1	1569	5016
1	1553	5017
1	1529	5018
1	1508	5019
1	1487	5020
1	1467	5021
1	1454	5022
1	1450	5023
1	1453	5024
1	1466	5025
1	1482	5026
1	1503	5027
1	1523	5028
1	1538	5029
1	1553	5030
1	1555	5031
1	1548	5032
1	1537	5033
1	1512	5034
1	1481	5035
1	1448	5036
1	1413	5037
1	1398	5038
1	1379	5039
1	1371	5040
1	1367	5041
1	1366	5042
1	1372	5043
1	1379	5044
1	1393	5045
1	1405	5046
1	1418	5047
1	1432	5048
1	1449	5049
1	1458	5050
1	1463	5051
1	1461	5052
1	1461	5053
1	1459	5054
1	1450	5055
1	1447	5056
1	1441	5057
1	1435	5058
1	1424	5059
1	1485	5100
1	1489	5101
1	1490	5102
1	1492	5103
1	1499	5104
1	1508	5105
1	1528	5106
1	1548	5107
1	1572	5108
1	1600	5109
1	1624	5110
1	1639	5111
1	1648	5112
1	1647	5113
1	1631	5114
1	1593	5115
1	1569	5116
1	1542	5117
1	1522	5118
1	1507	5119
1	1422	5060
1	1415	5061
1	1413	5062
1	1415	5063
1	1423	5064
1	1438	5065
1	1461	5066
1	1481	5067
1	1505	5068
1	1528	5069
1	1541	5070
1	1555	5071
1	1573	5072
1	1582	5073
1	1583	5074
1	1581	5075
1	1566	5076
1	1551	5077
1	1539	5078
1	1530	5079
1	1529	5100
1	1530	5101
1	1530	5102
1	1531	5103
1	1534	5104
1	1532	5105
1	1539	5106
1	1553	5107
1	1571	5108
1	1592	5109
1	1608	5110
1	1615	5111
1	1607	5112
1	1593	5113
1	1573	5114
1	1553	5115
1	1526	5116
1	1505	5117
1	1494	5118
1	1489	5119
1	1505	5120
1	1508	5121
1	1512	5122
1	1517	5123
1	1531	5124
1	1547	5125
1	1566	5126
1	1587	5127
1	1610	5128
1	1634	5129
1	1646	5130
1	1648	5131
1	1647	5132
1	1641	5133
1	1629	5134
1	1620	5135
1	1602	5136
1	1572	5137
1	1548	5138
1	1530	5139
1	1503	5140
1	1490	5141
1	1485	5142
1	1488	5143
1	1493	5144
1	1503	5145
1	1523	5146
1	1548	5147
1	1576	5148
1	1602	5149
1	1621	5150
1	1636	5151
1	1647	5152
1	1646	5153
1	1637	5154
1	1611	5155
1	1581	5156
1	1553	5157
1	1524	5158
1	1491	5159
1	1450	5160
1	1436	5161
1	1424	5162
1	1425	5163
1	1440	5164
1	1461	5165
1	1486	5166
1	1519	5167
1	1556	5168
1	1593	5169
1	1616	5170
1	1629	5171
1	1633	5172
1	1620	5173
1	1598	5174
1	1557	5175
1	1530	5176
1	1503	5177
1	1477	5178
1	1461	5179
1	1451	5180
1	1442	5181
1	1437	5182
1	1436	5183
1	1436	5184
1	1436	5185
1	1438	5186
1	1446	5187
1	1453	5188
1	1471	5189
1	1488	5190
1	1503	5191
1	1521	5192
1	1537	5193
1	1542	5194
1	1531	5195
1	1524	5196
1	1503	5197
1	1482	5198
1	1463	5199
1	1445	5200
1	1428	5201
1	1422	5202
1	1424	5203
1	1437	5204
1	1456	5205
1	1476	5206
1	1502	5207
1	1520	5208
1	1538	5209
1	1557	5210
1	1566	5211
1	1569	5212
1	1566	5213
1	1558	5214
1	1544	5215
1	1523	5216
1	1495	5217
1	1472	5218
1	1452	5219
1	1440	5220
1	1442	5221
1	1453	5222
1	1468	5223
1	1490	5224
1	1515	5225
1	1533	5226
1	1549	5227
1	1566	5228
1	1577	5229
1	1585	5230
1	1594	5231
1	1598	5232
1	1596	5233
1	1593	5234
1	1576	5235
1	1560	5236
1	1536	5237
1	1503	5238
1	1471	5239
1	1436	5240
1	1416	5241
1	1404	5242
1	1398	5243
1	1410	5244
1	1419	5245
1	1428	5246
1	1445	5247
1	1463	5248
1	1485	5249
1	1499	5250
1	1503	5251
1	1512	5252
1	1517	5253
1	1521	5254
1	1518	5255
1	1510	5256
1	1494	5257
1	1482	5258
1	1472	5259
1	1467	5260
1	1471	5261
1	1478	5262
1	1490	5263
1	1508	5264
1	1528	5265
1	1541	5266
1	1554	5267
1	1560	5268
1	1563	5269
1	1567	5270
1	1572	5271
1	1568	5272
1	1559	5273
1	1553	5274
1	1544	5275
1	1536	5276
1	1525	5277
1	1511	5278
1	1499	5279
1	1478	5280
1	1469	5281
1	1462	5282
1	1460	5283
1	1468	5284
1	1476	5285
1	1503	5286
1	1529	5287
1	1550	5288
1	1567	5289
1	1583	5290
1	1595	5291
1	1598	5292
1	1592	5293
1	1579	5294
1	1554	5295
1	1538	5296
1	1517	5297
1	1494	5298
1	1476	5299
1	1450	5300
1	1446	5301
1	1445	5302
1	1458	5303
1	1481	5304
1	1508	5305
1	1539	5306
1	1566	5307
1	1589	5308
1	1609	5309
1	1622	5310
1	1626	5311
1	1629	5312
1	1621	5313
1	1607	5314
1	1587	5315
1	1571	5316
1	1552	5317
1	1531	5318
1	1517	5319
1	1503	5320
1	1495	5321
1	1492	5322
1	1499	5323
1	1517	5324
1	1547	5325
1	1576	5326
1	1607	5327
1	1638	5328
1	1661	5329
1	1670	5330
1	1677	5331
1	1668	5332
1	1657	5333
1	1639	5334
1	1623	5335
1	1607	5336
1	1589	5337
1	1586	5338
1	1587	5339
1	1593	5340
1	1600	5341
1	1605	5342
1	1609	5343
1	1613	5344
1	1619	5345
1	1634	5346
1	1650	5347
1	1674	5348
1	1711	5349
1	1737	5350
1	1752	5351
1	1760	5352
1	1754	5353
1	1738	5354
1	1697	5355
1	1674	5356
1	1646	5357
1	1625	5358
1	1620	5359
1	1619	5380
1	1603	5381
1	1593	5382
1	1581	5383
1	1578	5384
1	1578	5385
1	1585	5386
1	1607	5387
1	1633	5388
1	1660	5389
1	1696	5390
1	1737	5391
1	1764	5392
1	1782	5393
1	1788	5394
1	1778	5395
1	1755	5396
1	1723	5397
1	1696	5398
1	1668	5399
1	1616	5360
1	1625	5361
1	1627	5362
1	1634	5363
1	1643	5364
1	1657	5365
1	1675	5366
1	1692	5367
1	1714	5368
1	1738	5369
1	1750	5370
1	1755	5371
1	1757	5372
1	1751	5373
1	1737	5374
1	1716	5375
1	1701	5376
1	1683	5377
1	1661	5378
1	1642	5379
1	1644	5400
1	1625	5401
1	1608	5402
1	1599	5403
1	1594	5404
1	1593	5405
1	1602	5406
1	1611	5407
1	1629	5408
1	1646	5409
1	1662	5410
1	1677	5411
1	1686	5412
1	1690	5413
1	1687	5414
1	1671	5415
1	1659	5416
1	1634	5417
1	1611	5418
1	1592	5419
1	1568	5420
1	1557	5421
1	1553	5422
1	1566	5423
1	1594	5424
1	1633	5425
1	1669	5426
1	1701	5427
1	1724	5428
1	1737	5429
1	1733	5430
1	1714	5431
1	1703	5432
1	1688	5433
1	1674	5434
1	1658	5435
1	1647	5436
1	1631	5437
1	1629	5438
1	1633	5439
1	1634	5480
1	1661	5481
1	1690	5482
1	1723	5483
1	1751	5484
1	1785	5485
1	1821	5486
1	1858	5487
1	1900	5488
1	1947	5489
1	1998	5490
1	2052	5491
1	2114	5492
1	2179	5493
1	2246	5494
1	2299	5495
1	2359	5496
1	2403	5497
1	2435	5498
1	2485	5499
1	1678	5460
1	1665	5461
1	1660	5462
1	1661	5463
1	1664	5464
1	1666	5465
1	1678	5466
1	1678	5467
1	1678	5468
1	1675	5469
1	1670	5470
1	1665	5471
1	1668	5472
1	1670	5473
1	1665	5474
1	1659	5475
1	1634	5476
1	1617	5477
1	1608	5478
1	1616	5479
1	1629	5440
1	1625	5441
1	1616	5442
1	1604	5443
1	1592	5444
1	1581	5445
1	1580	5446
1	1584	5447
1	1593	5448
1	1607	5449
1	1616	5450
1	1635	5451
1	1651	5452
1	1661	5453
1	1677	5454
1	1686	5455
1	1690	5456
1	1693	5457
1	1688	5458
1	1685	5459
1	2520	5500
1	2563	5501
1	2609	5502
1	2654	5503
1	2700	5504
1	2746	5505
1	2789	5506
1	2828	5507
1	2861	5508
1	2877	5509
1	2884	5510
1	2877	5511
1	2860	5512
1	2823	5513
1	2775	5514
1	2717	5515
1	2651	5516
1	2579	5517
1	2509	5518
1	2422	5519
1	2332	5520
1	2222	5521
1	2129	5522
1	2043	5523
1	1965	5524
1	1897	5525
1	1849	5526
1	1802	5527
1	1767	5528
1	1740	5529
1	1712	5530
1	1686	5531
1	1660	5532
1	1635	5533
1	1610	5534
1	1594	5535
1	1575	5536
1	1566	5537
1	1561	5538
1	1566	5539
1	1576	5540
1	1594	5541
1	1609	5542
1	1631	5543
1	1653	5544
1	1671	5545
1	1687	5546
1	1694	5547
1	1698	5548
1	1703	5549
1	1705	5550
1	1699	5551
1	1695	5552
1	1683	5553
1	1661	5554
1	1634	5555
1	1611	5556
1	1592	5557
1	1579	5558
1	1559	5559
1	1543	5560
1	1534	5561
1	1530	5562
1	1539	5563
1	1554	5564
1	1571	5565
1	1582	5566
1	1597	5567
1	1607	5568
1	1616	5569
1	1623	5570
1	1633	5571
1	1629	5572
1	1621	5573
1	1618	5574
1	1610	5575
1	1602	5576
1	1589	5577
1	1581	5578
1	1574	5579
1	1572	5580
1	1565	5581
1	1570	5582
1	1583	5583
1	1607	5584
1	1623	5585
1	1643	5586
1	1657	5587
1	1665	5588
1	1674	5589
1	1680	5590
1	1685	5591
1	1683	5592
1	1674	5593
1	1660	5594
1	1646	5595
1	1621	5596
1	1604	5597
1	1587	5598
1	1579	5599
1	1566	5600
1	1569	5601
1	1576	5602
1	1584	5603
1	1600	5604
1	1619	5605
1	1638	5606
1	1659	5607
1	1686	5608
1	1710	5609
1	1737	5610
1	1752	5611
1	1764	5612
1	1773	5613
1	1770	5614
1	1759	5615
1	1739	5616
1	1710	5617
1	1675	5618
1	1646	5619
1	1625	5620
1	1607	5621
1	1598	5622
1	1593	5623
1	1603	5624
1	1621	5625
1	1639	5626
1	1665	5627
1	1695	5628
1	1726	5629
1	1754	5630
1	1782	5631
1	1795	5632
1	1802	5633
1	1796	5634
1	1778	5635
1	1752	5636
1	1712	5637
1	1687	5638
1	1656	5639
1	1632	5640
1	1610	5641
1	1595	5642
1	1587	5643
1	1585	5644
1	1591	5645
1	1607	5646
1	1628	5647
1	1649	5648
1	1677	5649
1	1688	5650
1	1699	5651
1	1702	5652
1	1694	5653
1	1682	5654
1	1667	5655
1	1649	5656
1	1648	5657
1	1654	5658
1	1662	5659
1	1671	5660
1	1684	5661
1	1688	5662
1	1695	5663
1	1700	5664
1	1708	5665
1	1720	5666
1	1736	5667
1	1751	5668
1	1762	5669
1	1767	5670
1	1764	5671
1	1760	5672
1	1741	5673
1	1715	5674
1	1686	5675
1	1660	5676
1	1629	5677
1	1607	5678
1	1593	5679
1	1591	5680
1	1607	5681
1	1631	5682
1	1660	5683
1	1694	5684
1	1729	5685
1	1749	5686
1	1764	5687
1	1780	5688
1	1788	5689
1	1787	5690
1	1787	5691
1	1776	5692
1	1764	5693
1	1751	5694
1	1738	5695
1	1723	5696
1	1702	5697
1	1688	5698
1	1679	5699
1	1669	5700
1	1660	5701
1	1662	5702
1	1672	5703
1	1692	5704
1	1716	5705
1	1751	5706
1	1777	5707
1	1794	5708
1	1814	5709
1	1820	5710
1	1821	5711
1	1818	5712
1	1812	5713
1	1791	5714
1	1769	5715
1	1737	5716
1	1703	5717
1	1674	5718
1	1647	5719
1	1629	5720
1	1625	5721
1	1623	5722
1	1633	5723
1	1649	5724
1	1675	5725
1	1706	5726
1	1738	5727
1	1764	5728
1	1790	5729
1	1814	5730
1	1820	5731
1	1828	5732
1	1827	5733
1	1817	5734
1	1790	5735
1	1764	5736
1	1731	5737
1	1689	5738
1	1657	5739
1	1620	5740
1	1595	5741
1	1581	5742
1	1580	5743
1	1580	5744
1	1584	5745
1	1594	5746
1	1607	5747
1	1621	5748
1	1642	5749
1	1656	5750
1	1669	5751
1	1674	5752
1	1670	5753
1	1662	5754
1	1652	5755
1	1643	5756
1	1631	5757
1	1612	5758
1	1602	5759
1	1596	5760
1	1590	5761
1	1593	5762
1	1592	5763
1	1593	5764
1	1594	5765
1	1607	5766
1	1616	5767
1	1629	5768
1	1636	5769
1	1634	5770
1	1632	5771
1	1622	5772
1	1612	5773
1	1600	5774
1	1585	5775
1	1562	5776
1	1541	5777
1	1517	5778
1	1490	5779
1	1458	5780
1	1445	5781
1	1437	5782
1	1438	5783
1	1450	5784
1	1465	5785
1	1488	5786
1	1515	5787
1	1544	5788
1	1573	5789
1	1597	5790
1	1607	5791
1	1611	5792
1	1607	5793
1	1590	5794
1	1573	5795
1	1566	5796
1	1548	5797
1	1528	5798
1	1500	5799
1	1474	5800
1	1452	5801
1	1446	5802
1	1445	5803
1	1451	5804
1	1469	5805
1	1484	5806
1	1506	5807
1	1532	5808
1	1555	5809
1	1575	5810
1	1596	5811
1	1609	5812
1	1612	5813
1	1607	5814
1	1586	5815
1	1555	5816
1	1521	5817
1	1495	5818
1	1481	5819
1	1477	5820
1	1476	5821
1	1476	5822
1	1476	5823
1	1479	5824
1	1476	5825
1	1484	5826
1	1492	5827
1	1503	5828
1	1524	5829
1	1541	5830
1	1556	5831
1	1575	5832
1	1584	5833
1	1589	5834
1	1585	5835
1	1566	5836
1	1549	5837
1	1530	5838
1	1512	5839
1	1530	5860
1	1517	5861
1	1507	5862
1	1502	5863
1	1499	5864
1	1503	5865
1	1503	5866
1	1523	5867
1	1547	5868
1	1577	5869
1	1597	5870
1	1623	5871
1	1638	5872
1	1649	5873
1	1651	5874
1	1652	5875
1	1645	5876
1	1630	5877
1	1608	5878
1	1589	5879
1	1499	5840
1	1492	5841
1	1484	5842
1	1475	5843
1	1478	5844
1	1487	5845
1	1500	5846
1	1517	5847
1	1536	5848
1	1557	5849
1	1586	5850
1	1605	5851
1	1619	5852
1	1621	5853
1	1620	5854
1	1607	5855
1	1589	5856
1	1574	5857
1	1560	5858
1	1543	5859
1	1572	5880
1	1554	5881
1	1543	5882
1	1537	5883
1	1536	5884
1	1539	5885
1	1555	5886
1	1573	5887
1	1594	5888
1	1621	5889
1	1647	5890
1	1672	5891
1	1693	5892
1	1701	5893
1	1697	5894
1	1677	5895
1	1657	5896
1	1633	5897
1	1600	5898
1	1572	5899
1	1546	5900
1	1533	5901
1	1529	5902
1	1539	5903
1	1557	5904
1	1581	5905
1	1609	5906
1	1634	5907
1	1655	5908
1	1665	5909
1	1672	5910
1	1665	5911
1	1661	5912
1	1659	5913
1	1649	5914
1	1626	5915
1	1601	5916
1	1566	5917
1	1536	5918
1	1517	5919
1	1507	5920
1	1512	5921
1	1516	5922
1	1528	5923
1	1543	5924
1	1559	5925
1	1572	5926
1	1587	5927
1	1607	5928
1	1629	5929
1	1642	5930
1	1660	5931
1	1665	5932
1	1664	5933
1	1659	5934
1	1647	5935
1	1622	5936
1	1589	5937
1	1567	5938
1	1540	5939
1	1518	5940
1	1508	5941
1	1512	5942
1	1526	5943
1	1551	5944
1	1579	5945
1	1607	5946
1	1634	5947
1	1656	5948
1	1682	5949
1	1686	5950
1	1675	5951
1	1652	5952
1	1626	5953
1	1598	5954
1	1575	5955
1	1550	5956
1	1535	5957
1	1528	5958
1	1523	5959
1	1517	5960
1	1526	5961
1	1529	5962
1	1537	5963
1	1549	5964
1	1567	5965
1	1593	5966
1	1625	5967
1	1660	5968
1	1691	5969
1	1723	5970
1	1738	5971
1	1751	5972
1	1751	5973
1	1744	5974
1	1716	5975
1	1696	5976
1	1661	5977
1	1634	5978
1	1618	5979
1	1607	5980
1	1603	5981
1	1602	5982
1	1607	5983
1	1616	5984
1	1632	5985
1	1638	5986
1	1647	5987
1	1656	5988
1	1665	5989
1	1674	5990
1	1686	5991
1	1693	5992
1	1690	5993
1	1687	5994
1	1680	5995
1	1673	5996
1	1665	5997
1	1664	5998
1	1673	5999
1	1686	6000
1	1692	6001
1	1695	6002
1	1692	6003
1	1686	6004
1	1672	6005
1	1668	6006
1	1662	6007
1	1664	6008
1	1674	6009
1	1690	6010
1	1710	6011
1	1724	6012
1	1737	6013
1	1739	6014
1	1746	6015
1	1738	6016
1	1735	6017
1	1725	6018
1	1716	6019
1	1703	6020
1	1707	6021
1	1712	6022
1	1726	6023
1	1749	6024
1	1766	6025
1	1778	6026
1	1781	6027
1	1776	6028
1	1762	6029
1	1742	6030
1	1715	6031
1	1701	6032
1	1694	6033
1	1697	6034
1	1698	6035
1	1705	6036
1	1689	6037
1	1683	6038
1	1674	6039
1	1654	6060
1	1636	6061
1	1631	6062
1	1633	6063
1	1639	6064
1	1644	6065
1	1659	6066
1	1661	6067
1	1672	6068
1	1688	6069
1	1705	6070
1	1722	6071
1	1736	6072
1	1737	6073
1	1736	6074
1	1729	6075
1	1714	6076
1	1706	6077
1	1695	6078
1	1685	6079
1	1659	6040
1	1646	6041
1	1638	6042
1	1638	6043
1	1642	6044
1	1656	6045
1	1679	6046
1	1712	6047
1	1748	6048
1	1785	6049
1	1809	6050
1	1817	6051
1	1808	6052
1	1783	6053
1	1764	6054
1	1742	6055
1	1722	6056
1	1704	6057
1	1686	6058
1	1668	6059
1	1613	6100
1	1619	6101
1	1632	6102
1	1647	6103
1	1667	6104
1	1693	6105
1	1716	6106
1	1749	6107
1	1780	6108
1	1817	6109
1	1838	6110
1	1847	6111
1	1836	6112
1	1799	6113
1	1752	6114
1	1700	6115
1	1647	6116
1	1605	6117
1	1566	6118
1	1539	6119
1	1670	6080
1	1670	6081
1	1670	6082
1	1677	6083
1	1686	6084
1	1698	6085
1	1713	6086
1	1728	6087
1	1739	6088
1	1745	6089
1	1742	6090
1	1728	6091
1	1712	6092
1	1692	6093
1	1672	6094
1	1647	6095
1	1631	6096
1	1615	6097
1	1609	6098
1	1608	6099
1	1529	6120
1	1527	6121
1	1541	6122
1	1563	6123
1	1594	6124
1	1620	6125
1	1656	6126
1	1682	6127
1	1705	6128
1	1719	6129
1	1729	6130
1	1734	6131
1	1737	6132
1	1739	6133
1	1744	6134
1	1751	6135
1	1742	6136
1	1731	6137
1	1714	6138
1	1692	6139
1	1623	6160
1	1616	6161
1	1621	6162
1	1633	6163
1	1650	6164
1	1674	6165
1	1694	6166
1	1714	6167
1	1737	6168
1	1757	6169
1	1764	6170
1	1780	6171
1	1790	6172
1	1791	6173
1	1789	6174
1	1777	6175
1	1760	6176
1	1736	6177
1	1711	6178
1	1679	6179
1	1669	6140
1	1655	6141
1	1634	6142
1	1626	6143
1	1633	6144
1	1638	6145
1	1647	6146
1	1660	6147
1	1672	6148
1	1686	6149
1	1697	6150
1	1694	6151
1	1699	6152
1	1698	6153
1	1694	6154
1	1682	6155
1	1667	6156
1	1652	6157
1	1645	6158
1	1634	6159
1	1646	6180
1	1607	6181
1	1582	6182
1	1577	6183
1	1586	6184
1	1598	6185
1	1629	6186
1	1659	6187
1	1688	6188
1	1718	6189
1	1747	6190
1	1773	6191
1	1793	6192
1	1813	6193
1	1815	6194
1	1796	6195
1	1778	6196
1	1760	6197
1	1746	6198
1	1738	6199
1	1724	6200
1	1721	6201
1	1713	6202
1	1712	6203
1	1711	6204
1	1708	6205
1	1703	6206
1	1700	6207
1	1703	6208
1	1710	6209
1	1712	6210
1	1713	6211
1	1719	6212
1	1721	6213
1	1722	6214
1	1711	6215
1	1700	6216
1	1679	6217
1	1654	6218
1	1633	6219
1	1623	6220
1	1621	6221
1	1626	6222
1	1639	6223
1	1664	6224
1	1691	6225
1	1712	6226
1	1737	6227
1	1754	6228
1	1775	6229
1	1777	6230
1	1779	6231
1	1769	6232
1	1746	6233
1	1715	6234
1	1687	6235
1	1662	6236
1	1643	6237
1	1634	6238
1	1632	6239
1	1631	6240
1	1634	6241
1	1644	6242
1	1652	6243
1	1660	6244
1	1660	6245
1	1665	6246
1	1672	6247
1	1669	6248
1	1670	6249
1	1661	6250
1	1654	6251
1	1639	6252
1	1625	6253
1	1607	6254
1	1592	6255
1	1575	6256
1	1571	6257
1	1576	6258
1	1589	6259
1	1602	6260
1	1607	6261
1	1610	6262
1	1611	6263
1	1616	6264
1	1620	6265
1	1628	6266
1	1638	6267
1	1656	6268
1	1670	6269
1	1684	6270
1	1686	6271
1	1688	6272
1	1686	6273
1	1675	6274
1	1656	6275
1	1637	6276
1	1613	6277
1	1593	6278
1	1573	6279
1	1556	6280
1	1547	6281
1	1542	6282
1	1542	6283
1	1542	6284
1	1546	6285
1	1555	6286
1	1578	6287
1	1602	6288
1	1634	6289
1	1661	6290
1	1691	6291
1	1710	6292
1	1713	6293
1	1706	6294
1	1683	6295
1	1660	6296
1	1634	6297
1	1610	6298
1	1595	6299
1	1587	6300
1	1586	6301
1	1593	6302
1	1605	6303
1	1625	6304
1	1644	6305
1	1680	6306
1	1711	6307
1	1749	6308
1	1790	6309
1	1839	6310
1	1881	6311
1	1922	6312
1	1963	6313
1	1991	6314
1	2023	6315
1	2045	6316
1	2079	6317
1	2118	6318
1	2174	6319
1	2236	6320
1	2312	6321
1	2381	6322
1	2450	6323
1	2509	6324
1	2550	6325
1	2587	6326
1	2624	6327
1	2658	6328
1	2694	6329
1	2724	6330
1	2745	6331
1	2771	6332
1	2789	6333
1	2797	6334
1	2785	6335
1	2767	6336
1	2732	6337
1	2703	6338
1	2665	6339
1	2612	6340
1	2558	6341
1	2496	6342
1	2415	6343
1	2325	6344
1	2237	6345
1	2142	6346
1	2063	6347
1	1989	6348
1	1923	6349
1	1860	6350
1	1803	6351
1	1761	6352
1	1719	6353
1	1688	6354
1	1659	6355
1	1636	6356
1	1619	6357
1	1599	6358
1	1584	6359
1	1569	6360
1	1553	6361
1	1541	6362
1	1536	6363
1	1545	6364
1	1557	6365
1	1592	6366
1	1629	6367
1	1664	6368
1	1697	6369
1	1717	6370
1	1733	6371
1	1730	6372
1	1716	6373
1	1698	6374
1	1668	6375
1	1631	6376
1	1593	6377
1	1556	6378
1	1528	6379
1	1494	6380
1	1476	6381
1	1462	6382
1	1462	6383
1	1472	6384
1	1486	6385
1	1506	6386
1	1530	6387
1	1556	6388
1	1581	6389
1	1594	6390
1	1596	6391
1	1603	6392
1	1606	6393
1	1607	6394
1	1602	6395
1	1606	6396
1	1598	6397
1	1595	6398
1	1586	6399
1	1570	6400
1	1546	6401
1	1517	6402
1	1490	6403
1	1472	6404
1	1458	6405
1	1454	6406
1	1472	6407
1	1494	6408
1	1525	6409
1	1550	6410
1	1580	6411
1	1602	6412
1	1624	6413
1	1638	6414
1	1649	6415
1	1650	6416
1	1643	6417
1	1623	6418
1	1595	6419
1	1564	6420
1	1528	6421
1	1502	6422
1	1485	6423
1	1485	6424
1	1490	6425
1	1515	6426
1	1538	6427
1	1561	6428
1	1581	6429
1	1597	6430
1	1607	6431
1	1607	6432
1	1603	6433
1	1596	6434
1	1594	6435
1	1585	6436
1	1578	6437
1	1568	6438
1	1555	6439
1	1561	6460
1	1555	6461
1	1558	6462
1	1571	6463
1	1593	6464
1	1618	6465
1	1638	6466
1	1665	6467
1	1697	6468
1	1724	6469
1	1746	6470
1	1764	6471
1	1769	6472
1	1772	6473
1	1767	6474
1	1753	6475
1	1734	6476
1	1710	6477
1	1685	6478
1	1660	6479
1	1551	6440
1	1553	6441
1	1555	6442
1	1568	6443
1	1590	6444
1	1603	6445
1	1608	6446
1	1607	6447
1	1602	6448
1	1598	6449
1	1599	6450
1	1597	6451
1	1600	6452
1	1605	6453
1	1607	6454
1	1607	6455
1	1595	6456
1	1589	6457
1	1584	6458
1	1572	6459
1	1635	6480
1	1607	6481
1	1587	6482
1	1580	6483
1	1579	6484
1	1584	6485
1	1610	6486
1	1642	6487
1	1677	6488
1	1712	6489
1	1736	6490
1	1744	6491
1	1743	6492
1	1737	6493
1	1723	6494
1	1705	6495
1	1686	6496
1	1671	6497
1	1662	6498
1	1659	6499
1	1656	6500
1	1647	6501
1	1649	6502
1	1651	6503
1	1664	6504
1	1677	6505
1	1685	6506
1	1690	6507
1	1693	6508
1	1697	6509
1	1699	6510
1	1692	6511
1	1686	6512
1	1683	6513
1	1682	6514
1	1685	6515
1	1679	6516
1	1664	6517
1	1648	6518
1	1636	6519
1	1629	6520
1	1628	6521
1	1632	6522
1	1640	6523
1	1659	6524
1	1679	6525
1	1697	6526
1	1718	6527
1	1749	6528
1	1772	6529
1	1799	6530
1	1818	6531
1	1832	6532
1	1838	6533
1	1837	6534
1	1827	6535
1	1809	6536
1	1788	6537
1	1764	6538
1	1742	6539
1	1726	6540
1	1708	6541
1	1692	6542
1	1687	6543
1	1690	6544
1	1698	6545
1	1705	6546
1	1716	6547
1	1736	6548
1	1762	6549
1	1785	6550
1	1812	6551
1	1828	6552
1	1841	6553
1	1839	6554
1	1827	6555
1	1799	6556
1	1780	6557
1	1760	6558
1	1738	6559
1	1713	6560
1	1697	6561
1	1679	6562
1	1669	6563
1	1670	6564
1	1680	6565
1	1685	6566
1	1687	6567
1	1693	6568
1	1697	6569
1	1702	6570
1	1701	6571
1	1708	6572
1	1717	6573
1	1731	6574
1	1751	6575
1	1759	6576
1	1755	6577
1	1744	6578
1	1728	6579
1	1708	6580
1	1685	6581
1	1659	6582
1	1637	6583
1	1621	6584
1	1620	6585
1	1612	6586
1	1623	6587
1	1637	6588
1	1664	6589
1	1703	6590
1	1734	6591
1	1752	6592
1	1757	6593
1	1746	6594
1	1721	6595
1	1698	6596
1	1675	6597
1	1655	6598
1	1634	6599
1	1620	6600
1	1602	6601
1	1581	6602
1	1570	6603
1	1568	6604
1	1574	6605
1	1591	6606
1	1607	6607
1	1624	6608
1	1634	6609
1	1646	6610
1	1644	6611
1	1638	6612
1	1628	6613
1	1616	6614
1	1607	6615
1	1592	6616
1	1579	6617
1	1569	6618
1	1555	6619
1	1537	6620
1	1526	6621
1	1501	6622
1	1479	6623
1	1472	6624
1	1476	6625
1	1490	6626
1	1517	6627
1	1542	6628
1	1567	6629
1	1590	6630
1	1603	6631
1	1612	6632
1	1618	6633
1	1612	6634
1	1604	6635
1	1575	6636
1	1529	6637
1	1503	6638
1	1481	6639
1	1464	6660
1	1449	6661
1	1448	6662
1	1462	6663
1	1490	6664
1	1526	6665
1	1568	6666
1	1605	6667
1	1638	6668
1	1669	6669
1	1688	6670
1	1699	6671
1	1698	6672
1	1686	6673
1	1671	6674
1	1652	6675
1	1622	6676
1	1603	6677
1	1582	6678
1	1562	6679
1	1461	6640
1	1450	6641
1	1449	6642
1	1454	6643
1	1472	6644
1	1490	6645
1	1518	6646
1	1547	6647
1	1577	6648
1	1600	6649
1	1618	6650
1	1625	6651
1	1629	6652
1	1618	6653
1	1607	6654
1	1584	6655
1	1559	6656
1	1532	6657
1	1505	6658
1	1479	6659
1	1587	6700
1	1567	6701
1	1547	6702
1	1531	6703
1	1526	6704
1	1529	6705
1	1530	6706
1	1552	6707
1	1580	6708
1	1608	6709
1	1638	6710
1	1674	6711
1	1695	6712
1	1704	6713
1	1704	6714
1	1696	6715
1	1685	6716
1	1661	6717
1	1643	6718
1	1620	6719
1	1546	6680
1	1528	6681
1	1511	6682
1	1503	6683
1	1503	6684
1	1510	6685
1	1527	6686
1	1542	6687
1	1566	6688
1	1586	6689
1	1605	6690
1	1607	6691
1	1620	6692
1	1625	6693
1	1629	6694
1	1625	6695
1	1622	6696
1	1615	6697
1	1607	6698
1	1597	6699
1	1605	6720
1	1581	6721
1	1571	6722
1	1566	6723
1	1566	6724
1	1569	6725
1	1581	6726
1	1594	6727
1	1607	6728
1	1620	6729
1	1636	6730
1	1659	6731
1	1677	6732
1	1694	6733
1	1705	6734
1	1706	6735
1	1685	6736
1	1657	6737
1	1620	6738
1	1585	6739
1	1554	6740
1	1539	6741
1	1523	6742
1	1514	6743
1	1526	6744
1	1536	6745
1	1557	6746
1	1583	6747
1	1613	6748
1	1638	6749
1	1657	6750
1	1656	6751
1	1647	6752
1	1633	6753
1	1608	6754
1	1589	6755
1	1559	6756
1	1536	6757
1	1516	6758
1	1499	6759
1	1483	6760
1	1477	6761
1	1477	6762
1	1485	6763
1	1495	6764
1	1511	6765
1	1528	6766
1	1544	6767
1	1566	6768
1	1587	6769
1	1602	6770
1	1611	6771
1	1632	6772
1	1639	6773
1	1636	6774
1	1623	6775
1	1602	6776
1	1570	6777
1	1538	6778
1	1503	6779
1	1474	6780
1	1436	6781
1	1409	6782
1	1395	6783
1	1384	6784
1	1390	6785
1	1415	6786
1	1445	6787
1	1484	6788
1	1526	6789
1	1566	6790
1	1599	6791
1	1626	6792
1	1644	6793
1	1655	6794
1	1649	6795
1	1647	6796
1	1634	6797
1	1611	6798
1	1581	6799
1	1543	6800
1	1508	6801
1	1472	6802
1	1449	6803
1	1443	6804
1	1445	6805
1	1456	6806
1	1476	6807
1	1495	6808
1	1523	6809
1	1551	6810
1	1574	6811
1	1603	6812
1	1634	6813
1	1660	6814
1	1670	6815
1	1671	6816
1	1658	6817
1	1638	6818
1	1620	6819
1	1599	6820
1	1579	6821
1	1556	6822
1	1545	6823
1	1539	6824
1	1538	6825
1	1530	6826
1	1539	6827
1	1555	6828
1	1576	6829
1	1605	6830
1	1630	6831
1	1654	6832
1	1671	6833
1	1680	6834
1	1677	6835
1	1661	6836
1	1633	6837
1	1607	6838
1	1571	6839
1	1530	6840
1	1497	6841
1	1472	6842
1	1456	6843
1	1446	6844
1	1440	6845
1	1436	6846
1	1450	6847
1	1472	6848
1	1505	6849
1	1539	6850
1	1569	6851
1	1593	6852
1	1607	6853
1	1620	6854
1	1623	6855
1	1613	6856
1	1603	6857
1	1585	6858
1	1567	6859
1	1553	6860
1	1547	6861
1	1542	6862
1	1536	6863
1	1532	6864
1	1529	6865
1	1529	6866
1	1527	6867
1	1529	6868
1	1536	6869
1	1553	6870
1	1565	6871
1	1581	6872
1	1590	6873
1	1594	6874
1	1598	6875
1	1590	6876
1	1577	6877
1	1561	6878
1	1553	6879
1	1523	6900
1	1504	6901
1	1499	6902
1	1499	6903
1	1503	6904
1	1514	6905
1	1535	6906
1	1555	6907
1	1577	6908
1	1596	6909
1	1615	6910
1	1629	6911
1	1638	6912
1	1649	6913
1	1656	6914
1	1656	6915
1	1643	6916
1	1625	6917
1	1598	6918
1	1567	6919
1	1543	6880
1	1542	6881
1	1536	6882
1	1528	6883
1	1515	6884
1	1507	6885
1	1508	6886
1	1526	6887
1	1544	6888
1	1568	6889
1	1594	6890
1	1610	6891
1	1626	6892
1	1639	6893
1	1648	6894
1	1643	6895
1	1629	6896
1	1603	6897
1	1573	6898
1	1546	6899
1	1542	6920
1	1513	6921
1	1494	6922
1	1481	6923
1	1485	6924
1	1498	6925
1	1508	6926
1	1524	6927
1	1530	6928
1	1539	6929
1	1547	6930
1	1553	6931
1	1558	6932
1	1561	6933
1	1562	6934
1	1553	6935
1	1550	6936
1	1540	6937
1	1530	6938
1	1533	6939
1	1530	6940
1	1525	6941
1	1518	6942
1	1516	6943
1	1515	6944
1	1514	6945
1	1526	6946
1	1536	6947
1	1555	6948
1	1579	6949
1	1601	6950
1	1617	6951
1	1637	6952
1	1651	6953
1	1660	6954
1	1656	6955
1	1641	6956
1	1619	6957
1	1593	6958
1	1569	6959
1	1551	6960
1	1536	6961
1	1531	6962
1	1530	6963
1	1535	6964
1	1543	6965
1	1557	6966
1	1568	6967
1	1584	6968
1	1602	6969
1	1618	6970
1	1638	6971
1	1657	6972
1	1671	6973
1	1686	6974
1	1688	6975
1	1677	6976
1	1661	6977
1	1643	6978
1	1618	6979
1	1647	7000
1	1626	7001
1	1607	7002
1	1593	7003
1	1582	7004
1	1581	7005
1	1581	7006
1	1593	7007
1	1613	7008
1	1639	7009
1	1669	7010
1	1710	7011
1	1742	7012
1	1770	7013
1	1787	7014
1	1783	7015
1	1764	7016
1	1733	7017
1	1692	7018
1	1654	7019
1	1596	6980
1	1573	6981
1	1555	6982
1	1550	6983
1	1556	6984
1	1566	6985
1	1581	6986
1	1593	6987
1	1610	6988
1	1629	6989
1	1648	6990
1	1664	6991
1	1686	6992
1	1707	6993
1	1716	6994
1	1718	6995
1	1723	6996
1	1711	6997
1	1691	6998
1	1669	6999
1	1610	7020
1	1569	7021
1	1533	7022
1	1507	7023
1	1494	7024
1	1499	7025
1	1517	7026
1	1537	7027
1	1557	7028
1	1579	7029
1	1594	7030
1	1607	7031
1	1619	7032
1	1630	7033
1	1634	7034
1	1634	7035
1	1616	7036
1	1593	7037
1	1571	7038
1	1548	7039
1	1527	7040
1	1514	7041
1	1503	7042
1	1490	7043
1	1500	7044
1	1512	7045
1	1530	7046
1	1555	7047
1	1580	7048
1	1598	7049
1	1610	7050
1	1610	7051
1	1610	7052
1	1608	7053
1	1600	7054
1	1592	7055
1	1576	7056
1	1563	7057
1	1552	7058
1	1527	7059
1	1499	7060
1	1479	7061
1	1472	7062
1	1476	7063
1	1489	7064
1	1512	7065
1	1529	7066
1	1548	7067
1	1561	7068
1	1572	7069
1	1577	7070
1	1587	7071
1	1593	7072
1	1593	7073
1	1589	7074
1	1584	7075
1	1585	7076
1	1587	7077
1	1584	7078
1	1584	7079
1	1544	7100
1	1542	7101
1	1533	7102
1	1530	7103
1	1533	7104
1	1542	7105
1	1559	7106
1	1586	7107
1	1623	7108
1	1670	7109
1	1728	7110
1	1778	7111
1	1844	7112
1	1899	7113
1	1947	7114
1	1982	7115
1	2021	7116
1	2052	7117
1	2081	7118
1	2115	7119
1	1582	7080
1	1571	7081
1	1557	7082
1	1544	7083
1	1531	7084
1	1529	7085
1	1524	7086
1	1527	7087
1	1536	7088
1	1552	7089
1	1564	7090
1	1577	7091
1	1580	7092
1	1579	7093
1	1574	7094
1	1567	7095
1	1567	7096
1	1568	7097
1	1561	7098
1	1555	7099
1	2620	7140
1	2554	7141
1	2483	7142
1	2389	7143
1	2281	7144
1	2170	7145
1	2066	7146
1	1973	7147
1	1899	7148
1	1843	7149
1	1791	7150
1	1743	7151
1	1703	7152
1	1669	7153
1	1642	7154
1	1616	7155
1	1582	7156
1	1561	7157
1	1542	7158
1	1530	7159
1	2149	7120
1	2183	7121
1	2222	7122
1	2271	7123
1	2318	7124
1	2381	7125
1	2438	7126
1	2505	7127
1	2569	7128
1	2640	7129
1	2706	7130
1	2764	7131
1	2803	7132
1	2825	7133
1	2829	7134
1	2816	7135
1	2787	7136
1	2758	7137
1	2717	7138
1	2669	7139
1	1529	7160
1	1534	7161
1	1536	7162
1	1537	7163
1	1530	7164
1	1527	7165
1	1528	7166
1	1529	7167
1	1536	7168
1	1544	7169
1	1554	7170
1	1558	7171
1	1577	7172
1	1594	7173
1	1610	7174
1	1633	7175
1	1638	7176
1	1636	7177
1	1625	7178
1	1602	7179
1	1572	7180
1	1539	7181
1	1503	7182
1	1475	7183
1	1458	7184
1	1458	7185
1	1463	7186
1	1478	7187
1	1500	7188
1	1525	7189
1	1551	7190
1	1572	7191
1	1594	7192
1	1615	7193
1	1624	7194
1	1621	7195
1	1611	7196
1	1594	7197
1	1574	7198
1	1545	7199
1	1517	7200
1	1490	7201
1	1472	7202
1	1452	7203
1	1441	7204
1	1439	7205
1	1450	7206
1	1466	7207
1	1481	7208
1	1494	7209
1	1503	7210
1	1508	7211
1	1517	7212
1	1529	7213
1	1548	7214
1	1561	7215
1	1567	7216
1	1574	7217
1	1566	7218
1	1543	7219
1	1511	7220
1	1486	7221
1	1464	7222
1	1454	7223
1	1455	7224
1	1466	7225
1	1481	7226
1	1503	7227
1	1528	7228
1	1549	7229
1	1569	7230
1	1582	7231
1	1597	7232
1	1602	7233
1	1595	7234
1	1590	7235
1	1574	7236
1	1558	7237
1	1539	7238
1	1530	7239
1	1571	7260
1	1559	7261
1	1564	7262
1	1570	7263
1	1581	7264
1	1594	7265
1	1616	7266
1	1633	7267
1	1646	7268
1	1657	7269
1	1665	7270
1	1670	7271
1	1674	7272
1	1677	7273
1	1674	7274
1	1664	7275
1	1641	7276
1	1610	7277
1	1585	7278
1	1566	7279
1	1557	7280
1	1554	7281
1	1553	7282
1	1555	7283
1	1569	7284
1	1593	7285
1	1617	7286
1	1636	7287
1	1665	7288
1	1686	7289
1	1710	7290
1	1716	7291
1	1728	7292
1	1733	7293
1	1726	7294
1	1729	7295
1	1715	7296
1	1699	7297
1	1686	7298
1	1667	7299
1	1648	7300
1	1633	7301
1	1616	7302
1	1607	7303
1	1598	7304
1	1599	7305
1	1607	7306
1	1634	7307
1	1670	7308
1	1711	7309
1	1755	7310
1	1791	7311
1	1817	7312
1	1830	7313
1	1827	7314
1	1812	7315
1	1784	7316
1	1755	7317
1	1733	7318
1	1712	7319
1	1518	7240
1	1517	7241
1	1525	7242
1	1534	7243
1	1544	7244
1	1555	7245
1	1554	7246
1	1554	7247
1	1555	7248
1	1558	7249
1	1571	7250
1	1587	7251
1	1607	7252
1	1622	7253
1	1638	7254
1	1639	7255
1	1634	7256
1	1621	7257
1	1602	7258
1	1582	7259
1	1698	7320
1	1687	7321
1	1695	7322
1	1708	7323
1	1723	7324
1	1749	7325
1	1765	7326
1	1782	7327
1	1792	7328
1	1803	7329
1	1814	7330
1	1818	7331
1	1817	7332
1	1817	7333
1	1817	7334
1	1812	7335
1	1791	7336
1	1772	7337
1	1756	7338
1	1738	7339
1	1715	7340
1	1704	7341
1	1688	7342
1	1669	7343
1	1660	7344
1	1646	7345
1	1645	7346
1	1656	7347
1	1672	7348
1	1688	7349
1	1708	7350
1	1728	7351
1	1747	7352
1	1764	7353
1	1780	7354
1	1789	7355
1	1787	7356
1	1772	7357
1	1760	7358
1	1736	7359
1	1708	7360
1	1685	7361
1	1669	7362
1	1659	7363
1	1659	7364
1	1662	7365
1	1672	7366
1	1687	7367
1	1699	7368
1	1707	7369
1	1707	7370
1	1706	7371
1	1690	7372
1	1672	7373
1	1646	7374
1	1616	7375
1	1587	7376
1	1558	7377
1	1529	7378
1	1503	7379
1	1479	7380
1	1463	7381
1	1461	7382
1	1467	7383
1	1485	7384
1	1512	7385
1	1542	7386
1	1572	7387
1	1607	7388
1	1634	7389
1	1658	7390
1	1674	7391
1	1687	7392
1	1689	7393
1	1682	7394
1	1649	7395
1	1607	7396
1	1564	7397
1	1523	7398
1	1481	7399
1	1450	7400
1	1428	7401
1	1411	7402
1	1398	7403
1	1394	7404
1	1398	7405
1	1412	7406
1	1435	7407
1	1463	7408
1	1496	7409
1	1526	7410
1	1542	7411
1	1562	7412
1	1580	7413
1	1584	7414
1	1580	7415
1	1567	7416
1	1544	7417
1	1526	7418
1	1505	7419
1	1485	7420
1	1466	7421
1	1450	7422
1	1438	7423
1	1428	7424
1	1424	7425
1	1413	7426
1	1411	7427
1	1416	7428
1	1430	7429
1	1451	7430
1	1475	7431
1	1492	7432
1	1504	7433
1	1516	7434
1	1515	7435
1	1506	7436
1	1491	7437
1	1462	7438
1	1434	7439
1	1410	7440
1	1384	7441
1	1375	7442
1	1379	7443
1	1400	7444
1	1428	7445
1	1462	7446
1	1492	7447
1	1521	7448
1	1546	7449
1	1562	7450
1	1570	7451
1	1567	7452
1	1557	7453
1	1544	7454
1	1526	7455
1	1497	7456
1	1468	7457
1	1446	7458
1	1428	7459
1	1415	7460
1	1409	7461
1	1398	7462
1	1384	7463
1	1377	7464
1	1384	7465
1	1400	7466
1	1420	7467
1	1437	7468
1	1462	7469
1	1493	7470
1	1518	7471
1	1545	7472
1	1568	7473
1	1585	7474
1	1599	7475
1	1597	7476
1	1583	7477
1	1567	7478
1	1551	7479
1	1534	7480
1	1529	7481
1	1530	7482
1	1539	7483
1	1552	7484
1	1568	7485
1	1577	7486
1	1583	7487
1	1585	7488
1	1581	7489
1	1573	7490
1	1555	7491
1	1530	7492
1	1507	7493
1	1490	7494
1	1469	7495
1	1454	7496
1	1439	7497
1	1428	7498
1	1423	7499
1	1422	7500
1	1418	7501
1	1422	7502
1	1428	7503
1	1440	7504
1	1450	7505
1	1474	7506
1	1495	7507
1	1523	7508
1	1554	7509
1	1584	7510
1	1611	7511
1	1634	7512
1	1643	7513
1	1639	7514
1	1622	7515
1	1580	7516
1	1535	7517
1	1495	7518
1	1466	7519
1	1446	7520
1	1431	7521
1	1421	7522
1	1419	7523
1	1424	7524
1	1434	7525
1	1442	7526
1	1451	7527
1	1468	7528
1	1492	7529
1	1513	7530
1	1528	7531
1	1544	7532
1	1556	7533
1	1566	7534
1	1575	7535
1	1572	7536
1	1567	7537
1	1557	7538
1	1562	7539
1	1555	7540
1	1550	7541
1	1550	7542
1	1551	7543
1	1550	7544
1	1548	7545
1	1549	7546
1	1553	7547
1	1557	7548
1	1572	7549
1	1590	7550
1	1611	7551
1	1628	7552
1	1625	7553
1	1612	7554
1	1581	7555
1	1548	7556
1	1515	7557
1	1488	7558
1	1464	7559
1	1449	7560
1	1431	7561
1	1423	7562
1	1420	7563
1	1424	7564
1	1438	7565
1	1466	7566
1	1495	7567
1	1527	7568
1	1555	7569
1	1581	7570
1	1600	7571
1	1610	7572
1	1613	7573
1	1612	7574
1	1607	7575
1	1593	7576
1	1579	7577
1	1559	7578
1	1541	7579
1	1528	7580
1	1508	7581
1	1497	7582
1	1484	7583
1	1476	7584
1	1460	7585
1	1450	7586
1	1449	7587
1	1454	7588
1	1471	7589
1	1494	7590
1	1513	7591
1	1540	7592
1	1556	7593
1	1567	7594
1	1571	7595
1	1563	7596
1	1542	7597
1	1529	7598
1	1505	7599
1	1482	7600
1	1462	7601
1	1446	7602
1	1438	7603
1	1450	7604
1	1476	7605
1	1510	7606
1	1551	7607
1	1585	7608
1	1610	7609
1	1629	7610
1	1652	7611
1	1670	7612
1	1683	7613
1	1690	7614
1	1689	7615
1	1679	7616
1	1656	7617
1	1634	7618
1	1611	7619
1	1646	7640
1	1647	7641
1	1637	7642
1	1647	7643
1	1649	7644
1	1665	7645
1	1678	7646
1	1690	7647
1	1703	7648
1	1711	7649
1	1716	7650
1	1712	7651
1	1710	7652
1	1705	7653
1	1698	7654
1	1687	7655
1	1680	7656
1	1671	7657
1	1669	7658
1	1660	7659
1	1589	7620
1	1558	7621
1	1541	7622
1	1526	7623
1	1515	7624
1	1513	7625
1	1521	7626
1	1530	7627
1	1544	7628
1	1560	7629
1	1579	7630
1	1598	7631
1	1619	7632
1	1634	7633
1	1646	7634
1	1652	7635
1	1656	7636
1	1661	7637
1	1661	7638
1	1660	7639
1	1650	7660
1	1639	7661
1	1633	7662
1	1625	7663
1	1618	7664
1	1611	7665
1	1603	7666
1	1607	7667
1	1616	7668
1	1634	7669
1	1647	7670
1	1670	7671
1	1687	7672
1	1710	7673
1	1728	7674
1	1738	7675
1	1736	7676
1	1720	7677
1	1699	7678
1	1683	7679
1	1665	7680
1	1640	7681
1	1631	7682
1	1626	7683
1	1629	7684
1	1639	7685
1	1651	7686
1	1659	7687
1	1660	7688
1	1661	7689
1	1665	7690
1	1672	7691
1	1681	7692
1	1686	7693
1	1686	7694
1	1685	7695
1	1668	7696
1	1647	7697
1	1620	7698
1	1585	7699
1	1554	7700
1	1529	7701
1	1507	7702
1	1494	7703
1	1490	7704
1	1493	7705
1	1502	7706
1	1515	7707
1	1533	7708
1	1556	7709
1	1581	7710
1	1596	7711
1	1607	7712
1	1612	7713
1	1617	7714
1	1613	7715
1	1613	7716
1	1605	7717
1	1589	7718
1	1575	7719
1	1556	7740
1	1553	7741
1	1546	7742
1	1541	7743
1	1537	7744
1	1538	7745
1	1547	7746
1	1557	7747
1	1577	7748
1	1602	7749
1	1625	7750
1	1644	7751
1	1660	7752
1	1665	7753
1	1663	7754
1	1665	7755
1	1661	7756
1	1655	7757
1	1644	7758
1	1630	7759
1	1556	7720
1	1546	7721
1	1536	7722
1	1529	7723
1	1529	7724
1	1533	7725
1	1536	7726
1	1549	7727
1	1566	7728
1	1585	7729
1	1607	7730
1	1618	7731
1	1629	7732
1	1641	7733
1	1646	7734
1	1644	7735
1	1633	7736
1	1608	7737
1	1582	7738
1	1566	7739
1	1633	7780
1	1638	7781
1	1640	7782
1	1639	7783
1	1641	7784
1	1646	7785
1	1647	7786
1	1660	7787
1	1673	7788
1	1686	7789
1	1700	7790
1	1706	7791
1	1708	7792
1	1706	7793
1	1697	7794
1	1677	7795
1	1647	7796
1	1608	7797
1	1581	7798
1	1553	7799
1	1611	7760
1	1594	7761
1	1564	7762
1	1531	7763
1	1506	7764
1	1490	7765
1	1488	7766
1	1497	7767
1	1513	7768
1	1533	7769
1	1555	7770
1	1566	7771
1	1574	7772
1	1581	7773
1	1581	7774
1	1589	7775
1	1592	7776
1	1595	7777
1	1607	7778
1	1618	7779
1	1530	7800
1	1514	7801
1	1503	7802
1	1507	7803
1	1521	7804
1	1544	7805
1	1581	7806
1	1610	7807
1	1643	7808
1	1669	7809
1	1688	7810
1	1700	7811
1	1710	7812
1	1710	7813
1	1704	7814
1	1701	7815
1	1690	7816
1	1675	7817
1	1660	7818
1	1647	7819
1	1632	7820
1	1617	7821
1	1595	7822
1	1580	7823
1	1574	7824
1	1579	7825
1	1584	7826
1	1596	7827
1	1616	7828
1	1639	7829
1	1667	7830
1	1686	7831
1	1706	7832
1	1716	7833
1	1722	7834
1	1728	7835
1	1718	7836
1	1701	7837
1	1674	7838
1	1656	7839
1	1614	7840
1	1582	7841
1	1554	7842
1	1534	7843
1	1526	7844
1	1529	7845
1	1540	7846
1	1561	7847
1	1591	7848
1	1624	7849
1	1652	7850
1	1680	7851
1	1694	7852
1	1701	7853
1	1712	7854
1	1715	7855
1	1715	7856
1	1713	7857
1	1711	7858
1	1708	7859
1	1703	7860
1	1698	7861
1	1693	7862
1	1686	7863
1	1677	7864
1	1670	7865
1	1670	7866
1	1671	7867
1	1679	7868
1	1689	7869
1	1704	7870
1	1725	7871
1	1753	7872
1	1778	7873
1	1802	7874
1	1823	7875
1	1831	7876
1	1839	7877
1	1841	7878
1	1828	7879
1	1814	7880
1	1783	7881
1	1756	7882
1	1738	7883
1	1727	7884
1	1721	7885
1	1728	7886
1	1739	7887
1	1749	7888
1	1757	7889
1	1764	7890
1	1769	7891
1	1787	7892
1	1803	7893
1	1822	7894
1	1841	7895
1	1843	7896
1	1832	7897
1	1827	7898
1	1808	7899
1	1781	7900
1	1757	7901
1	1736	7902
1	1712	7903
1	1688	7904
1	1675	7905
1	1660	7906
1	1651	7907
1	1647	7908
1	1647	7909
1	1660	7910
1	1687	7911
1	1707	7912
1	1720	7913
1	1728	7914
1	1723	7915
1	1712	7916
1	1697	7917
1	1685	7918
1	1670	7919
1	1657	7920
1	1638	7921
1	1631	7922
1	1631	7923
1	1636	7924
1	1654	7925
1	1682	7926
1	1708	7927
1	1733	7928
1	1749	7929
1	1763	7930
1	1779	7931
1	1794	7932
1	1815	7933
1	1827	7934
1	1839	7935
1	1827	7936
1	1812	7937
1	1791	7938
1	1769	7939
1	1744	7940
1	1736	7941
1	1715	7942
1	1714	7943
1	1715	7944
1	1718	7945
1	1718	7946
1	1716	7947
1	1712	7948
1	1709	7949
1	1708	7950
1	1703	7951
1	1705	7952
1	1706	7953
1	1704	7954
1	1694	7955
1	1686	7956
1	1675	7957
1	1677	7958
1	1674	7959
1	1672	7960
1	1673	7961
1	1677	7962
1	1686	7963
1	1698	7964
1	1712	7965
1	1718	7966
1	1731	7967
1	1738	7968
1	1739	7969
1	1746	7970
1	1761	7971
1	1767	7972
1	1778	7973
1	1787	7974
1	1791	7975
1	1791	7976
1	1787	7977
1	1777	7978
1	1760	7979
1	1738	7980
1	1713	7981
1	1708	7982
1	1722	7983
1	1752	7984
1	1809	7985
1	1869	7986
1	1940	7987
1	2014	7988
1	2093	7989
1	2170	7990
1	2249	7991
1	2317	7992
1	2381	7993
1	2441	7994
1	2494	7995
1	2525	7996
1	2571	7997
1	2611	7998
1	2656	7999
1	2695	8000
1	2731	8000
1	2763	8002
1	2791	8003
1	2818	8004
1	2850	8005
1	2877	8006
1	2902	8007
1	2929	8008
1	2952	8009
1	2962	8010
1	2961	8011
1	2947	8012
1	2922	8013
1	2885	8013
1	2835	8015
1	2773	8016
1	2696	8016
1	2609	8018
1	2520	8019
1	2423	8020
1	2316	8021
1	2209	8022
1	2106	8023
1	2013	8024
1	1933	8025
1	1865	8026
1	1824	8027
1	1801	8028
1	1793	8029
1	1796	8029
1	1791	8031
1	1791	8032
1	1791	8032
1	1796	8034
1	1803	8035
1	1808	8036
1	1801	8037
1	1782	8038
1	1762	8039
1	1736	8040
1	1701	8041
1	1672	8042
1	1642	8043
1	1620	8044
1	1600	8045
1	1593	8045
1	1587	8047
1	1590	8048
1	1606	8048
1	1616	8050
1	1632	8051
1	1645	8052
1	1659	8053
1	1665	8054
1	1673	8055
1	1664	8056
1	1656	8057
1	1642	8058
1	1626	8059
1	1607	8060
1	1594	8061
1	1581	8061
1	1576	8063
1	1580	8064
1	1593	8064
1	1612	8066
1	1634	8067
1	1658	8068
1	1679	8069
1	1699	8070
1	1715	8071
1	1734	8072
1	1744	8073
1	1743	8074
1	1734	8074
1	1712	8076
1	1690	8077
1	1662	8077
1	1639	8079
1	1616	8080
1	1600	8080
1	1589	8082
1	1592	8083
1	1600	8084
1	1620	8085
1	1647	8086
1	1681	8087
1	1711	8088
1	1738	8089
1	1766	8090
1	1791	8090
1	1818	8092
1	1843	8093
1	1856	8093
1	1860	8095
1	1861	8096
1	1856	8096
1	1847	8098
1	1834	8099
1	1817	8100
1	1791	8101
1	1777	8102
1	1776	8103
1	1775	8104
1	1782	8105
1	1787	8106
1	1793	8106
1	1808	8108
1	1823	8109
1	1843	8109
1	1862	8111
1	1885	8112
1	1908	8113
1	1925	8114
1	1942	8115
1	1944	8116
1	1945	8117
1	1944	8118
1	1931	8119
1	1924	8120
1	1916	8121
1	1908	8122
1	1899	8122
1	1896	8124
1	1897	8125
1	1904	8125
1	1916	8127
1	1926	8128
1	1940	8129
1	1960	8130
1	1973	8131
1	1993	8132
1	2007	8133
1	2021	8134
1	2039	8135
1	2043	8136
1	2039	8137
1	2026	8138
1	1998	8138
1	1981	8140
1	1965	8141
1	1949	8141
1	1943	8143
1	1935	8144
1	1931	8145
1	1932	8146
1	1939	8147
1	1948	8148
1	1958	8149
1	1958	8150
1	1970	8151
1	1974	8152
1	1975	8153
1	1988	8154
1	1994	8154
1	1997	8156
1	1988	8157
1	1973	8157
1	1958	8159
1	1949	8160
1	1939	8161
1	1940	8162
1	1948	8163
1	1961	8164
1	1980	8165
1	2013	8166
1	2042	8167
1	2071	8168
1	2101	8169
1	2120	8170
1	2136	8170
1	2156	8172
1	2163	8173
1	2173	8173
1	2179	8175
1	2170	8176
1	2158	8177
1	2142	8178
1	2118	8179
1	2102	8180
1	2078	8181
1	2056	8182
1	2050	8183
1	2052	8184
1	2063	8185
1	2079	8186
1	2103	8186
1	2128	8188
1	2153	8189
1	2171	8189
1	2179	8191
1	2192	8192
1	2206	8193
1	2212	8194
1	2222	8195
1	2222	8196
1	2210	8197
1	2192	8198
1	2162	8199
1	2131	8200
1	2101	8201
1	2078	8202
1	2068	8203
1	2076	8204
1	2084	8205
1	2095	8206
1	2112	8207
1	2131	8208
1	2149	8209
1	2170	8210
1	2183	8211
1	2197	8212
1	2210	8213
1	2222	8214
1	2237	8215
1	2247	8216
1	2260	8217
1	2271	8218
1	2278	8219
1	2286	8220
1	2273	8221
1	2263	8222
1	2250	8223
1	2235	8224
1	2222	8225
1	2230	8226
1	2222	8227
1	2222	8228
1	2233	8229
1	2239	8230
1	2249	8231
1	2255	8232
1	2255	8233
1	2248	8234
1	2238	8235
1	2210	8236
1	2184	8237
1	2157	8238
1	2127	8239
1	2096	8240
1	2078	8241
1	2052	8242
1	2038	8243
1	2031	8244
1	2034	8245
1	2039	8246
1	2052	8247
1	2065	8248
1	2079	8249
1	2090	8250
1	2093	8251
1	2095	8252
1	2097	8253
1	2087	8254
1	2071	8255
1	2052	8256
1	2026	8257
1	2008	8258
1	1985	8259
1	1962	8260
1	1945	8261
1	1933	8262
1	1926	8263
1	1922	8264
1	1916	8265
1	1904	8266
1	1898	8267
1	1898	8268
1	1906	8269
1	1922	8270
1	1946	8271
1	1958	8272
1	1963	8273
1	1962	8274
1	1957	8275
1	1946	8276
1	1922	8277
1	1892	8278
1	1854	8279
1	1811	8280
1	1754	8281
1	1715	8282
1	1690	8283
1	1680	8284
1	1686	8285
1	1698	8286
1	1712	8287
1	1734	8288
1	1760	8289
1	1789	8290
1	1819	8291
1	1849	8292
1	1875	8293
1	1899	8294
1	1913	8295
1	1920	8296
1	1908	8297
1	1887	8298
1	1858	8299
1	1835	8300
1	1811	8301
1	1791	8302
1	1778	8303
1	1778	8304
1	1778	8305
1	1784	8306
1	1791	8307
1	1801	8308
1	1818	8309
1	1829	8310
1	1830	8311
1	1839	8312
1	1843	8313
1	1846	8314
1	1854	8315
1	1864	8316
1	1869	8317
1	1880	8318
1	1888	8319
1	1893	8320
1	1886	8321
1	1875	8322
1	1861	8323
1	1852	8324
1	1845	8325
1	1845	8326
1	1860	8327
1	1884	8328
1	1906	8329
1	1922	8330
1	1924	8331
1	1922	8332
1	1922	8333
1	1926	8334
1	1929	8335
1	1923	8336
1	1914	8337
1	1894	8338
1	1875	8339
1	1860	8340
1	1847	8341
1	1836	8342
1	1823	8343
1	1809	8344
1	1808	8345
1	1811	8346
1	1817	8347
1	1832	8348
1	1850	8349
1	1870	8350
1	1894	8351
1	1908	8352
1	1920	8353
1	1929	8354
1	1939	8355
1	1939	8356
1	1939	8357
1	1935	8358
1	1922	8359
1	1895	8360
1	1859	8361
1	1823	8362
1	1788	8363
1	1769	8364
1	1762	8365
1	1760	8366
1	1767	8367
1	1790	8368
1	1818	8369
1	1843	8370
1	1860	8371
1	1883	8372
1	1898	8373
1	1911	8374
1	1920	8375
1	1922	8376
1	1916	8377
1	1895	8378
1	1871	8379
1	1849	8380
1	1823	8381
1	1800	8382
1	1788	8383
1	1780	8384
1	1785	8385
1	1793	8386
1	1823	8387
1	1856	8388
1	1888	8389
1	1922	8390
1	1943	8391
1	1949	8392
1	1948	8393
1	1944	8394
1	1922	8395
1	1895	8396
1	1868	8397
1	1836	8398
1	1802	8399
1	1779	8400
1	1764	8401
1	1756	8402
1	1754	8403
1	1764	8404
1	1782	8405
1	1794	8406
1	1817	8407
1	1833	8408
1	1854	8409
1	1875	8410
1	1895	8411
1	1908	8412
1	1918	8413
1	1922	8414
1	1922	8415
1	1908	8416
1	1895	8417
1	1869	8418
1	1839	8419
1	1815	8420
1	1786	8421
1	1765	8422
1	1752	8423
1	1738	8424
1	1726	8425
1	1712	8426
1	1708	8427
1	1710	8428
1	1723	8429
1	1747	8430
1	1769	8431
1	1803	8432
1	1839	8433
1	1868	8434
1	1890	8435
1	1906	8436
1	1897	8437
1	1869	8438
1	1841	8439
1	1790	8440
1	1738	8441
1	1701	8442
1	1676	8443
1	1668	8444
1	1672	8445
1	1688	8446
1	1716	8447
1	1752	8448
1	1801	8449
1	1847	8450
1	1885	8451
1	1913	8452
1	1934	8453
1	1949	8454
1	1949	8455
1	1927	8456
1	1886	8457
1	1836	8458
1	1778	8459
1	1726	8460
1	1675	8461
1	1650	8462
1	1647	8463
1	1659	8464
1	1686	8465
1	1728	8466
1	1763	8467
1	1790	8468
1	1817	8469
1	1836	8470
1	1852	8471
1	1868	8472
1	1878	8473
1	1885	8474
1	1885	8475
1	1863	8476
1	1839	8477
1	1811	8478
1	1769	8479
1	1738	8480
1	1704	8481
1	1672	8482
1	1647	8483
1	1631	8484
1	1619	8485
1	1618	8486
1	1628	8487
1	1644	8488
1	1667	8489
1	1697	8490
1	1723	8491
1	1757	8492
1	1791	8493
1	1817	8494
1	1836	8495
1	1842	8496
1	1831	8497
1	1809	8498
1	1775	8499
1	1750	8500
1	1724	8501
1	1708	8502
1	1701	8503
1	1705	8504
1	1713	8505
1	1719	8506
1	1736	8507
1	1744	8508
1	1753	8509
1	1764	8510
1	1773	8511
1	1791	8512
1	1811	8513
1	1818	8514
1	1831	8515
1	1835	8516
1	1840	8517
1	1832	8518
1	1809	8519
1	1778	8520
1	1739	8521
1	1711	8522
1	1686	8523
1	1664	8524
1	1649	8525
1	1644	8526
1	1641	8527
1	1644	8528
1	1647	8529
1	1654	8530
1	1658	8531
1	1663	8532
1	1679	8533
1	1695	8534
1	1710	8535
1	1713	8536
1	1715	8537
1	1716	8538
1	1714	8539
1	1712	8540
1	1712	8541
1	1700	8542
1	1686	8543
1	1670	8544
1	1647	8545
1	1622	8546
1	1603	8547
1	1589	8548
1	1584	8549
1	1587	8550
1	1592	8551
1	1607	8552
1	1623	8553
1	1638	8554
1	1652	8555
1	1661	8556
1	1665	8557
1	1669	8558
1	1656	8559
1	1638	8560
1	1623	8561
1	1612	8562
1	1607	8563
1	1598	8564
1	1594	8565
1	1597	8566
1	1612	8567
1	1644	8568
1	1675	8569
1	1710	8570
1	1738	8571
1	1762	8572
1	1776	8573
1	1778	8574
1	1778	8575
1	1767	8576
1	1749	8577
1	1718	8578
1	1687	8579
1	1658	8580
1	1623	8581
1	1603	8582
1	1594	8583
1	1597	8584
1	1607	8585
1	1618	8586
1	1632	8587
1	1642	8588
1	1648	8589
1	1652	8590
1	1657	8591
1	1659	8592
1	1659	8593
1	1660	8594
1	1651	8595
1	1643	8596
1	1629	8597
1	1608	8598
1	1587	8599
1	1576	8600
1	1559	8601
1	1553	8602
1	1551	8603
1	1559	8604
1	1575	8605
1	1585	8606
1	1594	8607
1	1603	8608
1	1607	8609
1	1613	8610
1	1614	8611
1	1620	8612
1	1625	8613
1	1628	8614
1	1626	8615
1	1631	8616
1	1632	8617
1	1637	8618
1	1644	8619
1	1753	8640
1	1738	8641
1	1721	8642
1	1712	8643
1	1706	8644
1	1706	8645
1	1710	8646
1	1714	8647
1	1719	8648
1	1721	8649
1	1731	8650
1	1744	8651
1	1769	8652
1	1792	8653
1	1817	8654
1	1831	8655
1	1827	8656
1	1809	8657
1	1777	8658
1	1739	8659
1	1652	8620
1	1657	8621
1	1662	8622
1	1670	8623
1	1674	8624
1	1677	8625
1	1674	8626
1	1671	8627
1	1670	8628
1	1679	8629
1	1701	8630
1	1726	8631
1	1754	8632
1	1780	8633
1	1796	8634
1	1814	8635
1	1814	8636
1	1809	8637
1	1789	8638
1	1770	8639
1	1590	8680
1	1557	8681
1	1536	8682
1	1521	8683
1	1513	8684
1	1511	8685
1	1511	8686
1	1524	8687
1	1546	8688
1	1572	8689
1	1604	8690
1	1626	8691
1	1642	8692
1	1643	8693
1	1640	8694
1	1632	8695
1	1611	8696
1	1598	8697
1	1584	8698
1	1576	8699
1	1572	8700
1	1571	8701
1	1570	8702
1	1568	8703
1	1569	8704
1	1573	8705
1	1579	8706
1	1581	8707
1	1585	8708
1	1587	8709
1	1594	8710
1	1602	8711
1	1607	8712
1	1607	8713
1	1599	8714
1	1585	8715
1	1559	8716
1	1541	8717
1	1525	8718
1	1510	8719
1	1698	8660
1	1667	8661
1	1636	8662
1	1616	8663
1	1602	8664
1	1594	8665
1	1588	8666
1	1590	8667
1	1598	8668
1	1611	8669
1	1623	8670
1	1626	8671
1	1632	8672
1	1634	8673
1	1642	8674
1	1655	8675
1	1659	8676
1	1656	8677
1	1639	8678
1	1617	8679
1	1495	8720
1	1487	8721
1	1470	8722
1	1452	8723
1	1439	8724
1	1432	8725
1	1436	8726
1	1448	8727
1	1458	8728
1	1472	8729
1	1492	8730
1	1512	8731
1	1542	8732
1	1575	8733
1	1606	8734
1	1629	8735
1	1629	8736
1	1615	8737
1	1600	8738
1	1580	8739
1	1551	8740
1	1529	8741
1	1514	8742
1	1503	8743
1	1498	8744
1	1502	8745
1	1517	8746
1	1543	8747
1	1578	8748
1	1620	8749
1	1669	8750
1	1724	8751
1	1780	8752
1	1841	8753
1	1890	8754
1	1937	8755
1	1980	8756
1	2021	8757
1	2061	8758
1	2096	8759
1	2133	8760
1	2170	8761
1	2215	8762
1	2281	8763
1	2350	8764
1	2435	8765
1	2519	8766
1	2600	8767
1	2681	8768
1	2756	8769
1	2827	8770
1	2891	8771
1	2939	8772
1	2964	8773
1	2971	8774
1	2961	8775
1	2942	8776
1	2916	8777
1	2879	8778
1	2835	8779
1	2791	8780
1	2742	8781
1	2685	8782
1	2622	8783
1	2549	8784
1	2471	8785
1	2376	8786
1	2278	8787
1	2183	8788
1	2105	8789
1	2039	8790
1	1974	8791
1	1926	8792
1	1881	8793
1	1843	8794
1	1811	8795
1	1767	8796
1	1733	8797
1	1698	8798
1	1662	8799
1	1636	8800
1	1620	8801
1	1607	8802
1	1607	8803
1	1610	8804
1	1617	8805
1	1622	8806
1	1635	8807
1	1651	8808
1	1668	8809
1	1700	8810
1	1724	8811
1	1739	8812
1	1751	8813
1	1752	8814
1	1751	8815
1	1740	8816
1	1724	8817
1	1703	8818
1	1681	8819
1	1657	8820
1	1625	8821
1	1598	8822
1	1581	8823
1	1580	8824
1	1591	8825
1	1608	8826
1	1620	8827
1	1625	8828
1	1629	8829
1	1628	8830
1	1629	8831
1	1636	8832
1	1655	8833
1	1668	8834
1	1675	8835
1	1668	8836
1	1661	8837
1	1652	8838
1	1634	8839
1	1608	8840
1	1598	8841
1	1584	8842
1	1578	8843
1	1576	8844
1	1582	8845
1	1592	8846
1	1600	8847
1	1613	8848
1	1631	8849
1	1646	8850
1	1655	8851
1	1663	8852
1	1672	8853
1	1670	8854
1	1660	8855
1	1647	8856
1	1631	8857
1	1619	8858
1	1602	8859
1	1592	8860
1	1583	8861
1	1582	8862
1	1586	8863
1	1593	8864
1	1606	8865
1	1613	8866
1	1629	8867
1	1644	8868
1	1665	8869
1	1697	8870
1	1738	8871
1	1770	8872
1	1800	8873
1	1825	8874
1	1836	8875
1	1841	8876
1	1828	8877
1	1815	8878
1	1788	8879
1	1762	8880
1	1717	8881
1	1679	8882
1	1647	8883
1	1621	8884
1	1616	8885
1	1625	8886
1	1646	8887
1	1675	8888
1	1712	8889
1	1749	8890
1	1781	8891
1	1808	8892
1	1827	8893
1	1838	8894
1	1835	8895
1	1817	8896
1	1791	8897
1	1765	8898
1	1734	8899
1	1701	8900
1	1669	8901
1	1637	8902
1	1615	8903
1	1602	8904
1	1595	8905
1	1599	8906
1	1608	8907
1	1631	8908
1	1655	8909
1	1686	8910
1	1711	8911
1	1736	8912
1	1752	8913
1	1764	8914
1	1780	8915
1	1777	8916
1	1767	8917
1	1753	8918
1	1734	8919
1	1712	8920
1	1692	8921
1	1669	8922
1	1647	8923
1	1634	8924
1	1629	8925
1	1622	8926
1	1634	8927
1	1652	8928
1	1671	8929
1	1700	8930
1	1724	8931
1	1743	8932
1	1763	8933
1	1776	8934
1	1782	8935
1	1783	8936
1	1778	8937
1	1764	8938
1	1751	8939
1	1737	8940
1	1715	8941
1	1697	8942
1	1679	8943
1	1663	8944
1	1660	8945
1	1662	8946
1	1673	8947
1	1683	8948
1	1697	8949
1	1715	8950
1	1728	8951
1	1737	8952
1	1751	8953
1	1776	8954
1	1803	8955
1	1824	8956
1	1843	8957
1	1856	8958
1	1862	8959
1	1863	8960
1	1869	8961
1	1870	8962
1	1869	8963
1	1869	8964
1	1868	8965
1	1869	8966
1	1877	8967
1	1883	8968
1	1881	8969
1	1875	8970
1	1868	8971
1	1865	8972
1	1864	8973
1	1862	8974
1	1865	8975
1	1864	8976
1	1860	8977
1	1857	8978
1	1852	8979
1	1844	8980
1	1835	8981
1	1818	8982
1	1808	8983
1	1801	8984
1	1796	8985
1	1788	8986
1	1780	8987
1	1778	8988
1	1782	8989
1	1793	8990
1	1809	8991
1	1830	8992
1	1854	8993
1	1877	8994
1	1895	8995
1	1911	8996
1	1916	8997
1	1909	8998
1	1893	8999
1	1872	9000
1	1856	9001
1	1845	9002
1	1841	9003
1	1842	9004
1	1852	9005
1	1856	9006
1	1863	9007
1	1865	9008
1	1869	9009
1	1873	9010
1	1880	9011
1	1885	9012
1	1892	9013
1	1890	9014
1	1880	9015
1	1856	9016
1	1838	9017
1	1817	9018
1	1789	9019
1	1761	9020
1	1742	9021
1	1717	9022
1	1695	9023
1	1674	9024
1	1661	9025
1	1660	9026
1	1667	9027
1	1681	9028
1	1695	9029
1	1715	9030
1	1733	9031
1	1744	9032
1	1755	9033
1	1765	9034
1	1777	9035
1	1764	9036
1	1743	9037
1	1722	9038
1	1691	9039
1	1657	9040
1	1623	9041
1	1589	9042
1	1557	9043
1	1538	9044
1	1526	9045
1	1528	9046
1	1544	9047
1	1569	9048
1	1598	9049
1	1629	9050
1	1657	9051
1	1679	9052
1	1697	9053
1	1712	9054
1	1726	9055
1	1724	9056
1	1710	9057
1	1691	9058
1	1674	9059
1	1574	9100
1	1557	9101
1	1544	9102
1	1528	9103
1	1515	9104
1	1503	9105
1	1494	9106
1	1493	9107
1	1503	9108
1	1517	9109
1	1543	9110
1	1572	9111
1	1593	9112
1	1607	9113
1	1616	9114
1	1622	9115
1	1619	9116
1	1608	9117
1	1599	9118
1	1590	9119
1	1652	9060
1	1625	9061
1	1607	9062
1	1589	9063
1	1579	9064
1	1568	9065
1	1571	9066
1	1574	9067
1	1584	9068
1	1594	9069
1	1604	9070
1	1610	9071
1	1616	9072
1	1616	9073
1	1613	9074
1	1616	9075
1	1616	9076
1	1618	9077
1	1616	9078
1	1607	9079
1	1607	9080
1	1600	9081
1	1589	9082
1	1571	9083
1	1549	9084
1	1529	9085
1	1516	9086
1	1513	9087
1	1520	9088
1	1531	9089
1	1550	9090
1	1559	9091
1	1574	9092
1	1583	9093
1	1592	9094
1	1600	9095
1	1602	9096
1	1597	9097
1	1589	9098
1	1581	9099
1	1584	9120
1	1577	9121
1	1575	9122
1	1573	9123
1	1566	9124
1	1561	9125
1	1571	9126
1	1581	9127
1	1596	9128
1	1616	9129
1	1636	9130
1	1659	9131
1	1677	9132
1	1688	9133
1	1700	9134
1	1711	9135
1	1701	9136
1	1685	9137
1	1660	9138
1	1629	9139
1	1602	9140
1	1582	9141
1	1561	9142
1	1548	9143
1	1537	9144
1	1535	9145
1	1539	9146
1	1549	9147
1	1564	9148
1	1578	9149
1	1595	9150
1	1607	9151
1	1625	9152
1	1634	9153
1	1642	9154
1	1646	9155
1	1644	9156
1	1635	9157
1	1629	9158
1	1613	9159
1	1594	9160
1	1574	9161
1	1551	9162
1	1530	9163
1	1523	9164
1	1523	9165
1	1516	9166
1	1521	9167
1	1535	9168
1	1554	9169
1	1571	9170
1	1594	9171
1	1616	9172
1	1636	9173
1	1655	9174
1	1667	9175
1	1672	9176
1	1665	9177
1	1657	9178
1	1636	9179
1	1610	9180
1	1580	9181
1	1551	9182
1	1526	9183
1	1503	9184
1	1503	9185
1	1510	9186
1	1529	9187
1	1553	9188
1	1580	9189
1	1607	9190
1	1634	9191
1	1657	9192
1	1674	9193
1	1683	9194
1	1682	9195
1	1678	9196
1	1668	9197
1	1652	9198
1	1634	9199
1	1622	9200
1	1602	9201
1	1581	9202
1	1557	9203
1	1542	9204
1	1532	9205
1	1529	9206
1	1536	9207
1	1549	9208
1	1564	9209
1	1581	9210
1	1595	9211
1	1611	9212
1	1625	9213
1	1634	9214
1	1635	9215
1	1634	9216
1	1625	9217
1	1610	9218
1	1593	9219
1	1571	9220
1	1554	9221
1	1547	9222
1	1544	9223
1	1551	9224
1	1555	9225
1	1563	9226
1	1585	9227
1	1613	9228
1	1644	9229
1	1683	9230
1	1710	9231
1	1728	9232
1	1738	9233
1	1738	9234
1	1735	9235
1	1724	9236
1	1713	9237
1	1688	9238
1	1664	9239
1	1632	9240
1	1594	9241
1	1561	9242
1	1537	9243
1	1524	9244
1	1516	9245
1	1517	9246
1	1528	9247
1	1547	9248
1	1582	9249
1	1612	9250
1	1647	9251
1	1684	9252
1	1715	9253
1	1739	9254
1	1752	9255
1	1751	9256
1	1739	9257
1	1720	9258
1	1699	9259
1	1670	9260
1	1651	9261
1	1626	9262
1	1607	9263
1	1596	9264
1	1593	9265
1	1595	9266
1	1608	9267
1	1633	9268
1	1654	9269
1	1678	9270
1	1695	9271
1	1712	9272
1	1733	9273
1	1751	9274
1	1769	9275
1	1777	9276
1	1776	9277
1	1764	9278
1	1743	9279
1	1720	9280
1	1697	9281
1	1675	9282
1	1661	9283
1	1659	9284
1	1660	9285
1	1661	9286
1	1681	9287
1	1701	9288
1	1725	9289
1	1753	9290
1	1771	9291
1	1779	9292
1	1781	9293
1	1774	9294
1	1764	9295
1	1754	9296
1	1743	9297
1	1734	9298
1	1717	9299
1	1701	9300
1	1677	9301
1	1655	9302
1	1636	9303
1	1626	9304
1	1629	9305
1	1634	9306
1	1647	9307
1	1665	9308
1	1686	9309
1	1710	9310
1	1730	9311
1	1739	9312
1	1738	9313
1	1733	9314
1	1724	9315
1	1712	9316
1	1712	9317
1	1710	9318
1	1704	9319
1	1692	9320
1	1686	9321
1	1668	9322
1	1652	9323
1	1634	9324
1	1625	9325
1	1622	9326
1	1625	9327
1	1631	9328
1	1637	9329
1	1645	9330
1	1643	9331
1	1646	9332
1	1647	9333
1	1652	9334
1	1665	9335
1	1673	9336
1	1679	9337
1	1682	9338
1	1684	9339
1	1671	9340
1	1663	9341
1	1658	9342
1	1649	9343
1	1644	9344
1	1647	9345
1	1659	9346
1	1674	9347
1	1687	9348
1	1698	9349
1	1713	9350
1	1733	9351
1	1751	9352
1	1764	9353
1	1787	9354
1	1791	9355
1	1800	9356
1	1801	9357
1	1791	9358
1	1780	9359
1	1774	9360
1	1764	9361
1	1753	9362
1	1749	9363
1	1744	9364
1	1738	9365
1	1739	9366
1	1738	9367
1	1746	9368
1	1767	9369
1	1801	9370
1	1832	9371
1	1851	9372
1	1860	9373
1	1862	9374
1	1867	9375
1	1863	9376
1	1860	9377
1	1854	9378
1	1841	9379
1	1821	9380
1	1794	9381
1	1770	9382
1	1756	9383
1	1749	9384
1	1748	9385
1	1757	9386
1	1775	9387
1	1809	9388
1	1842	9389
1	1868	9390
1	1881	9391
1	1892	9392
1	1895	9393
1	1890	9394
1	1885	9395
1	1869	9396
1	1847	9397
1	1828	9398
1	1809	9399
1	1791	9400
1	1780	9401
1	1767	9402
1	1757	9403
1	1751	9404
1	1742	9405
1	1737	9406
1	1741	9407
1	1750	9408
1	1759	9409
1	1769	9410
1	1767	9411
1	1762	9412
1	1755	9413
1	1751	9414
1	1744	9415
1	1739	9416
1	1737	9417
1	1733	9418
1	1728	9419
1	1673	9460
1	1657	9461
1	1643	9462
1	1634	9463
1	1628	9464
1	1621	9465
1	1612	9466
1	1620	9467
1	1638	9468
1	1660	9469
1	1686	9470
1	1714	9471
1	1737	9472
1	1752	9473
1	1762	9474
1	1762	9475
1	1752	9476
1	1738	9477
1	1715	9478
1	1686	9479
1	1724	9420
1	1713	9421
1	1713	9422
1	1715	9423
1	1720	9424
1	1727	9425
1	1738	9426
1	1751	9427
1	1772	9428
1	1801	9429
1	1830	9430
1	1847	9431
1	1855	9432
1	1847	9433
1	1835	9434
1	1818	9435
1	1796	9436
1	1776	9437
1	1755	9438
1	1737	9439
1	1719	9440
1	1713	9441
1	1705	9442
1	1701	9443
1	1700	9444
1	1701	9445
1	1701	9446
1	1700	9447
1	1701	9448
1	1704	9449
1	1712	9450
1	1719	9451
1	1737	9452
1	1746	9453
1	1752	9454
1	1751	9455
1	1742	9456
1	1726	9457
1	1713	9458
1	1693	9459
1	1651	9480
1	1618	9481
1	1599	9482
1	1593	9483
1	1595	9484
1	1607	9485
1	1618	9486
1	1635	9487
1	1661	9488
1	1691	9489
1	1728	9490
1	1765	9491
1	1811	9492
1	1854	9493
1	1895	9494
1	1935	9495
1	1965	9496
1	1999	9497
1	2025	9498
1	2049	9499
1	2078	9500
1	2100	9501
1	2123	9502
1	2157	9503
1	2201	9504
1	2259	9505
1	2317	9506
1	2386	9507
1	2469	9508
1	2547	9509
1	2634	9510
1	2716	9511
1	2806	9512
1	2893	9513
1	2969	9514
1	3025	9515
1	3056	9516
1	3064	9517
1	3058	9518
1	3036	9519
1	3009	9520
1	2969	9521
1	2924	9522
1	2870	9523
1	2811	9524
1	2750	9525
1	2685	9526
1	2619	9527
1	2549	9528
1	2485	9529
1	2410	9530
1	2318	9531
1	2230	9532
1	2133	9533
1	2047	9534
1	1961	9535
1	1883	9536
1	1824	9537
1	1767	9538
1	1727	9539
1	1685	9540
1	1643	9541
1	1609	9542
1	1581	9543
1	1560	9544
1	1544	9545
1	1539	9546
1	1537	9547
1	1544	9548
1	1566	9549
1	1589	9550
1	1611	9551
1	1634	9552
1	1660	9553
1	1680	9554
1	1699	9555
1	1707	9556
1	1713	9557
1	1715	9558
1	1710	9559
1	1690	9560
1	1665	9561
1	1633	9562
1	1600	9563
1	1574	9564
1	1554	9565
1	1534	9566
1	1519	9567
1	1512	9568
1	1512	9569
1	1524	9570
1	1532	9571
1	1551	9572
1	1571	9573
1	1590	9574
1	1612	9575
1	1625	9576
1	1631	9577
1	1629	9578
1	1619	9579
1	1607	9580
1	1590	9581
1	1571	9582
1	1554	9583
1	1541	9584
1	1535	9585
1	1529	9586
1	1524	9587
1	1527	9588
1	1535	9589
1	1552	9590
1	1564	9591
1	1575	9592
1	1578	9593
1	1576	9594
1	1573	9595
1	1569	9596
1	1560	9597
1	1555	9598
1	1542	9599
1	1533	9600
1	1527	9601
1	1521	9602
1	1518	9603
1	1521	9604
1	1530	9605
1	1539	9606
1	1551	9607
1	1570	9608
1	1589	9609
1	1608	9610
1	1633	9611
1	1652	9612
1	1670	9613
1	1680	9614
1	1682	9615
1	1672	9616
1	1660	9617
1	1642	9618
1	1625	9619
1	1607	9620
1	1602	9621
1	1590	9622
1	1580	9623
1	1569	9624
1	1560	9625
1	1557	9626
1	1568	9627
1	1585	9628
1	1615	9629
1	1643	9630
1	1661	9631
1	1683	9632
1	1689	9633
1	1694	9634
1	1701	9635
1	1707	9636
1	1703	9637
1	1696	9638
1	1682	9639
1	1613	9660
1	1592	9661
1	1573	9662
1	1562	9663
1	1563	9664
1	1571	9665
1	1586	9666
1	1607	9667
1	1634	9668
1	1664	9669
1	1690	9670
1	1713	9671
1	1733	9672
1	1751	9673
1	1764	9674
1	1767	9675
1	1764	9676
1	1760	9677
1	1744	9678
1	1724	9679
1	1660	9640
1	1638	9641
1	1621	9642
1	1607	9643
1	1594	9644
1	1589	9645
1	1595	9646
1	1607	9647
1	1620	9648
1	1637	9649
1	1655	9650
1	1670	9651
1	1685	9652
1	1693	9653
1	1705	9654
1	1702	9655
1	1693	9656
1	1679	9657
1	1658	9658
1	1634	9659
1	1708	9680
1	1685	9681
1	1661	9682
1	1648	9683
1	1643	9684
1	1646	9685
1	1656	9686
1	1674	9687
1	1700	9688
1	1729	9689
1	1756	9690
1	1769	9691
1	1780	9692
1	1786	9693
1	1782	9694
1	1782	9695
1	1778	9696
1	1773	9697
1	1769	9698
1	1761	9699
1	1747	9700
1	1735	9701
1	1717	9702
1	1710	9703
1	1705	9704
1	1703	9705
1	1692	9706
1	1688	9707
1	1686	9708
1	1685	9709
1	1699	9710
1	1715	9711
1	1734	9712
1	1748	9713
1	1755	9714
1	1757	9715
1	1759	9716
1	1755	9717
1	1751	9718
1	1748	9719
1	1737	9720
1	1711	9721
1	1687	9722
1	1669	9723
1	1650	9724
1	1646	9725
1	1634	9726
1	1631	9727
1	1630	9728
1	1638	9729
1	1656	9730
1	1682	9731
1	1707	9732
1	1731	9733
1	1751	9734
1	1762	9735
1	1760	9736
1	1746	9737
1	1721	9738
1	1692	9739
1	1515	9800
1	1485	9801
1	1451	9802
1	1413	9803
1	1372	9804
1	1337	9805
1	1310	9806
1	1289	9807
1	1279	9808
1	1280	9809
1	1293	9810
1	1310	9811
1	1334	9812
1	1360	9813
1	1384	9814
1	1413	9815
1	1439	9816
1	1453	9817
1	1467	9818
1	1468	9819
1	1576	9800
1	1544	9801
1	1514	9802
1	1485	9803
1	1463	9804
1	1449	9805
1	1436	9806
1	1424	9807
1	1415	9808
1	1413	9809
1	1416	9810
1	1424	9811
1	1441	9812
1	1465	9813
1	1493	9814
1	1519	9815
1	1535	9816
1	1544	9817
1	1544	9818
1	1532	9819
1	1564	9800
1	1523	9801
1	1485	9802
1	1458	9803
1	1438	9804
1	1431	9805
1	1433	9806
1	1454	9807
1	1492	9808
1	1533	9809
1	1580	9810
1	1623	9811
1	1652	9812
1	1671	9813
1	1679	9814
1	1675	9815
1	1657	9816
1	1635	9817
1	1617	9818
1	1597	9819
1	1665	9760
1	1652	9761
1	1638	9762
1	1630	9763
1	1628	9764
1	1632	9765
1	1638	9766
1	1658	9767
1	1679	9768
1	1701	9769
1	1727	9770
1	1739	9771
1	1746	9772
1	1744	9773
1	1734	9774
1	1717	9775
1	1698	9776
1	1672	9777
1	1647	9778
1	1607	9779
1	1445	9840
1	1414	9841
1	1382	9842
1	1361	9843
1	1350	9844
1	1350	9845
1	1356	9846
1	1363	9847
1	1376	9848
1	1402	9849
1	1421	9850
1	1433	9851
1	1450	9852
1	1472	9853
1	1492	9854
1	1511	9855
1	1520	9856
1	1528	9857
1	1529	9858
1	1528	9859
1	1456	9820
1	1440	9821
1	1417	9822
1	1394	9823
1	1368	9824
1	1351	9825
1	1341	9826
1	1345	9827
1	1356	9828
1	1372	9829
1	1399	9830
1	1424	9831
1	1443	9832
1	1458	9833
1	1475	9834
1	1484	9835
1	1497	9836
1	1503	9837
1	1490	9838
1	1474	9839
1	1518	9860
1	1506	9861
1	1492	9862
1	1477	9863
1	1467	9864
1	1454	9865
1	1450	9866
1	1446	9867
1	1449	9868
1	1455	9869
1	1467	9870
1	1476	9871
1	1496	9872
1	1517	9873
1	1535	9874
1	1559	9875
1	1576	9876
1	1580	9877
1	1571	9878
1	1557	9879
1	1543	9880
1	1520	9881
1	1494	9882
1	1466	9883
1	1446	9884
1	1430	9885
1	1417	9886
1	1413	9887
1	1421	9888
1	1430	9889
1	1450	9890
1	1474	9891
1	1495	9892
1	1510	9893
1	1526	9894
1	1529	9895
1	1529	9896
1	1526	9897
1	1518	9898
1	1505	9899
1	1490	9900
1	1476	9901
1	1467	9902
1	1458	9903
1	1451	9904
1	1450	9905
1	1440	9906
1	1436	9907
1	1437	9908
1	1445	9909
1	1453	9910
1	1469	9911
1	1486	9912
1	1505	9913
1	1525	9914
1	1535	9915
1	1533	9916
1	1532	9917
1	1529	9918
1	1521	9919
1	1503	9920
1	1494	9921
1	1476	9922
1	1464	9923
1	1451	9924
1	1443	9925
1	1436	9926
1	1428	9927
1	1427	9928
1	1428	9929
1	1432	9930
1	1434	9931
1	1441	9932
1	1450	9933
1	1454	9934
1	1472	9935
1	1481	9936
1	1489	9937
1	1489	9938
1	1479	9939
1	1471	9940
1	1450	9941
1	1437	9942
1	1424	9943
1	1409	9944
1	1398	9945
1	1403	9946
1	1422	9947
1	1450	9948
1	1481	9949
1	1516	9950
1	1544	9951
1	1564	9952
1	1569	9953
1	1566	9954
1	1547	9955
1	1526	9956
1	1502	9957
1	1478	9958
1	1458	9959
1	1438	9960
1	1412	9961
1	1398	9962
1	1384	9963
1	1384	9964
1	1395	9965
1	1412	9966
1	1430	9967
1	1449	9968
1	1466	9969
1	1481	9970
1	1495	9971
1	1508	9972
1	1520	9973
1	1526	9974
1	1525	9975
1	1510	9976
1	1494	9977
1	1472	9978
1	1446	9979
1	1427	9980
1	1405	9981
1	1384	9982
1	1371	9983
1	1362	9984
1	1356	9985
1	1356	9986
1	1364	9987
1	1377	9988
1	1400	9989
1	1422	9990
1	1437	9991
1	1455	9992
1	1474	9993
1	1489	9994
1	1500	9995
1	1499	9996
1	1490	9997
1	1477	9998
1	1463	9999
1	1450	10000
1	1436	10001
1	1422	10002
1	1405	10003
1	1402	10004
1	1405	10005
1	1408	10006
1	1419	10007
1	1427	10008
1	1438	10009
1	1451	10010
1	1459	10011
1	1461	10012
1	1460	10013
1	1456	10014
1	1454	10015
1	1450	10016
1	1437	10017
1	1420	10018
1	1398	10019
1	1364	10020
1	1331	10021
1	1305	10022
1	1291	10023
1	1284	10024
1	1291	10025
1	1307	10026
1	1322	10027
1	1332	10028
1	1348	10029
1	1368	10030
1	1398	10031
1	1432	10032
1	1469	10033
1	1503	10034
1	1525	10035
1	1529	10036
1	1523	10037
1	1497	10038
1	1456	10039
1	1412	10040
1	1364	10041
1	1323	10042
1	1289	10043
1	1265	10044
1	1249	10045
1	1250	10046
1	1267	10047
1	1291	10048
1	1312	10049
1	1331	10050
1	1346	10051
1	1363	10052
1	1384	10053
1	1410	10054
1	1434	10055
1	1450	10056
1	1461	10057
1	1472	10058
1	1471	10059
1	1465	10060
1	1455	10061
1	1446	10062
1	1436	10063
1	1428	10064
1	1423	10065
1	1410	10066
1	1399	10067
1	1390	10068
1	1382	10069
1	1384	10070
1	1396	10071
1	1400	10072
1	1405	10073
1	1412	10074
1	1420	10075
1	1424	10076
1	1422	10077
1	1416	10078
1	1406	10079
1	1394	10080
1	1371	10081
1	1355	10082
1	1345	10083
1	1341	10084
1	1345	10085
1	1346	10086
1	1355	10087
1	1369	10088
1	1392	10089
1	1413	10090
1	1437	10091
1	1464	10092
