#Date:= 2024-10-08T15:45:16.813356
#Sampling Rate(Hz):= 1000
#Labels:= LOD	ECG	TS
1	1647	20
1	1686	21
1	1716	22
1	1738	23
1	1749	24
1	1749	25
1	1747	26
1	1738	27
1	1731	28
1	1724	29
1	1724	30
1	1712	31
1	1698	32
1	1685	33
1	1670	34
1	1657	35
1	1647	36
1	1643	37
1	2023	38
1	2012	39
1	1996	40
1	1973	41
1	1948	42
1	1920	43
1	1893	44
1	1868	45
1	1850	46
1	1834	47
1	1828	48
1	1830	49
1	1835	50
1	1849	51
1	1869	52
1	1886	53
1	1896	54
1	1905	55
1	1901	56
1	1893	57
1	1877	58
1	1861	59
1	1843	60
1	1822	61
1	1791	62
1	1778	63
1	1764	64
1	1752	65
1	1751	66
1	1757	67
1	1764	68
1	1782	69
1	1808	70
1	1830	71
1	1855	72
1	1878	73
1	1896	74
1	1907	75
1	1911	76
1	1910	77
1	1908	78
1	1905	79
1	1894	80
1	1871	81
1	1854	82
1	1827	83
1	1793	84
1	1764	85
1	1739	86
1	1726	87
1	1721	88
1	1731	89
1	1751	90
1	1780	91
1	1827	92
1	1863	93
1	1904	94
1	1944	95
1	1970	96
1	1985	97
1	1980	98
1	1968	99
1	1948	100
1	1913	101
1	1880	102
1	1842	103
1	1801	104
1	1769	105
1	1747	106
1	1725	107
1	1715	108
1	1716	109
1	1724	110
1	1738	111
1	1755	112
1	1770	113
1	1783	114
1	1788	115
1	1781	116
1	1762	117
1	1737	118
1	1698	119
1	1657	120
1	1618	121
1	1577	122
1	1545	123
1	1517	124
1	1494	125
1	1481	126
1	1476	127
1	1479	128
1	1495	129
1	1520	130
1	1547	131
1	1580	132
1	1620	133
1	1660	134
1	1697	135
1	1724	136
1	1738	137
1	1741	138
1	1737	139
1	1718	140
1	1692	141
1	1659	142
1	1630	143
1	1595	144
1	1562	145
1	1542	146
1	1528	147
1	1528	148
1	1539	149
1	1563	150
1	1593	151
1	1626	152
1	1656	153
1	1688	154
1	1712	155
1	1730	156
1	1736	157
1	1733	158
1	1723	159
1	1711	160
1	1686	161
1	1652	162
1	1616	163
1	1576	164
1	1548	165
1	1533	166
1	1529	167
1	1535	168
1	1548	169
1	1566	170
1	1593	171
1	1621	172
1	1647	173
1	1670	174
1	1694	175
1	1713	176
1	1734	177
1	1742	178
1	1744	179
1	1738	180
1	1722	181
1	1688	182
1	1660	183
1	1634	184
1	1607	185
1	1583	186
1	1557	187
1	1539	188
1	1523	189
1	1521	190
1	1529	191
1	1546	192
1	1575	193
1	1607	194
1	1638	195
1	1667	196
1	1692	197
1	1707	198
1	1716	199
1	1724	200
1	1727	201
1	1733	202
1	1724	203
1	1710	204
1	1686	205
1	1660	206
1	1634	207
1	1615	208
1	1607	209
1	1602	210
1	1607	211
1	1623	212
1	1645	213
1	1675	214
1	1701	215
1	1728	216
1	1753	217
1	1764	218
1	1766	219
1	1761	220
1	1750	221
1	1729	222
1	1711	223
1	1690	224
1	1668	225
1	1651	226
1	1634	227
1	1626	228
1	1618	229
1	1621	230
1	1638	231
1	1664	232
1	1691	233
1	1718	234
1	1747	235
1	1773	236
1	1791	237
1	1800	238
1	1793	239
1	1788	240
1	1767	241
1	1743	242
1	1715	243
1	1690	244
1	1670	245
1	1658	246
1	1648	247
1	1651	248
1	1661	249
1	1686	250
1	1726	251
1	1764	252
1	1811	253
1	1847	254
1	1873	255
1	1898	256
1	1905	257
1	1903	258
1	1890	259
1	1865	260
1	1836	261
1	1791	262
1	1738	263
1	1686	264
1	1649	265
1	1627	266
1	1607	267
1	1598	268
1	1603	269
1	1620	270
1	1649	271
1	1689	272
1	1734	273
1	1787	274
1	1841	275
1	1890	276
1	1929	277
1	1953	278
1	1960	279
1	1953	280
1	1939	281
1	1913	282
1	1886	283
1	1854	284
1	1821	285
1	1790	286
1	1757	287
1	1743	288
1	1742	289
1	1750	290
1	1772	291
1	1800	292
1	1832	293
1	1859	294
1	1890	295
1	1913	296
1	1930	297
1	1935	298
1	1933	299
1	1921	300
1	1904	301
1	1881	302
1	1869	303
1	1855	304
1	1845	305
1	1844	306
1	1845	307
1	1851	308
1	1863	309
1	1882	310
1	1905	311
1	1931	312
1	1958	313
1	1986	314
1	2013	315
1	2031	316
1	2041	317
1	2040	318
1	2031	319
1	2012	320
1	1983	321
1	1951	322
1	1917	323
1	1882	324
1	1849	325
1	1819	326
1	1796	327
1	1787	328
1	1787	329
1	1798	330
1	1827	331
1	1864	332
1	1903	333
1	1944	334
1	1971	335
1	1991	336
1	2004	337
1	2006	338
1	1989	339
1	1974	340
1	1952	341
1	1922	342
1	1904	343
1	1891	344
1	1880	345
1	1874	346
1	1870	347
1	1867	348
1	1862	349
1	1856	350
1	1854	351
1	1843	352
1	1839	353
1	1835	354
1	1827	355
1	1826	356
1	1815	357
1	1799	358
1	1783	359
1	1764	360
1	1737	361
1	1693	362
1	1670	363
1	1645	364
1	1623	365
1	1612	366
1	1608	367
1	1607	368
1	1611	369
1	1625	370
1	1643	371
1	1662	372
1	1688	373
1	1718	374
1	1747	375
1	1769	376
1	1776	377
1	1769	378
1	1751	379
1	1726	380
1	1700	381
1	1669	382
1	1639	383
1	1605	384
1	1568	385
1	1539	386
1	1520	387
1	1517	388
1	1526	389
1	1542	390
1	1559	391
1	1581	392
1	1594	393
1	1612	394
1	1629	395
1	1639	396
1	1652	397
1	1655	398
1	1657	399
1	1651	400
1	1643	401
1	1630	402
1	1607	403
1	1590	404
1	1580	405
1	1571	406
1	1563	407
1	1567	408
1	1581	409
1	1598	410
1	1620	411
1	1649	412
1	1673	413
1	1697	414
1	1715	415
1	1727	416
1	1727	417
1	1723	418
1	1706	419
1	1688	420
1	1665	421
1	1634	422
1	1607	423
1	1584	424
1	1567	425
1	1557	426
1	1556	427
1	1565	428
1	1584	429
1	1609	430
1	1641	431
1	1672	432
1	1701	433
1	1724	434
1	1738	435
1	1739	436
1	1721	437
1	1699	438
1	1664	439
1	1626	440
1	1587	441
1	1555	442
1	1538	443
1	1517	444
1	1503	445
1	1503	446
1	1516	447
1	1536	448
1	1567	449
1	1603	450
1	1639	451
1	1676	452
1	1708	453
1	1738	454
1	1764	455
1	1783	456
1	1791	457
1	1791	458
1	1779	459
1	1760	460
1	1725	461
1	1686	462
1	1652	463
1	1616	464
1	1592	465
1	1576	466
1	1568	467
1	1569	468
1	1581	469
1	1607	470
1	1643	471
1	1686	472
1	1724	473
1	1760	474
1	1788	475
1	1811	476
1	1817	477
1	1816	478
1	1796	479
1	1770	480
1	1737	481
1	1686	482
1	1659	483
1	1629	484
1	1607	485
1	1593	486
1	1597	487
1	1603	488
1	1616	489
1	1634	490
1	1649	491
1	1670	492
1	1687	493
1	1712	494
1	1736	495
1	1755	496
1	1769	497
1	1780	498
1	1787	499
1	1783	500
1	1773	501
1	1765	502
1	1753	503
1	1741	504
1	1730	505
1	1719	506
1	1712	507
1	1710	508
1	1708	509
1	1705	510
1	1706	511
1	1710	512
1	1721	513
1	1744	514
1	1765	515
1	1783	516
1	1803	517
1	1816	518
1	1813	519
1	1799	520
1	1779	521
1	1755	522
1	1728	523
1	1704	524
1	1686	525
1	1674	526
1	1668	527
1	1679	528
1	1698	529
1	1726	530
1	1762	531
1	1809	532
1	1843	533
1	1872	534
1	1898	535
1	1915	536
1	1917	537
1	1899	538
1	1867	539
1	1833	540
1	1788	541
1	1747	542
1	1713	543
1	1694	544
1	1686	545
1	1685	546
1	1686	547
1	1696	548
1	1719	549
1	1741	550
1	1778	551
1	1809	552
1	1841	553
1	1868	554
1	1890	555
1	1906	556
1	1908	557
1	1907	558
1	1895	559
1	1878	560
1	1852	561
1	1821	562
1	1790	563
1	1751	564
1	1726	565
1	1712	566
1	1707	567
1	1712	568
1	1736	569
1	1762	570
1	1793	571
1	1824	572
1	1845	573
1	1869	574
1	1885	575
1	1895	576
1	1904	577
1	1897	578
1	1887	579
1	1871	580
1	1856	581
1	1841	582
1	1823	583
1	1803	584
1	1790	585
1	1778	586
1	1769	587
1	1778	588
1	1791	589
1	1816	590
1	1832	591
1	1864	592
1	1886	593
1	1901	594
1	1913	595
1	1919	596
1	1920	597
1	1913	598
1	1905	599
1	1895	600
1	1890	601
1	1873	602
1	1859	603
1	1838	604
1	1814	605
1	1790	606
1	1772	607
1	1769	608
1	1773	609
1	1783	610
1	1800	611
1	1827	612
1	1856	613
1	1883	614
1	1908	615
1	1922	616
1	1926	617
1	1930	618
1	1929	619
1	1922	620
1	1908	621
1	1896	622
1	1873	623
1	1855	624
1	1839	625
1	1827	626
1	1819	627
1	1824	628
1	1834	629
1	1843	630
1	1860	631
1	1879	632
1	1900	633
1	1926	634
1	1945	635
1	1958	636
1	1973	637
1	1971	638
1	1953	639
1	1943	660
1	1944	661
1	1931	662
1	1922	663
1	1908	664
1	1893	665
1	1877	666
1	1868	667
1	1869	668
1	1870	669
1	1882	670
1	1898	671
1	1919	672
1	1939	673
1	1949	674
1	1961	675
1	1969	676
1	1962	677
1	1958	678
1	1945	679
1	1940	640
1	1921	641
1	1886	642
1	1867	643
1	1843	644
1	1824	645
1	1813	646
1	1801	647
1	1803	648
1	1817	649
1	1831	650
1	1843	651
1	1854	652
1	1859	653
1	1871	654
1	1884	655
1	1906	656
1	1917	657
1	1929	658
1	1937	659
1	1931	680
1	1913	681
1	1895	682
1	1881	683
1	1869	684
1	1869	685
1	1870	686
1	1880	687
1	1890	688
1	1901	689
1	1917	690
1	1931	691
1	1942	692
1	1949	693
1	1960	694
1	1966	695
1	1974	696
1	1980	697
1	1999	698
1	2004	699
1	2003	700
1	1998	701
1	1981	702
1	1962	703
1	1945	704
1	1923	705
1	1908	706
1	1892	707
1	1886	708
1	1886	709
1	1896	710
1	1913	711
1	1932	712
1	1958	713
1	1979	714
1	1999	715
1	2010	716
1	2016	717
1	2013	718
1	2005	719
1	1991	720
1	1971	721
1	1939	722
1	1917	723
1	1895	724
1	1874	725
1	1865	726
1	1869	727
1	1891	728
1	1907	729
1	1928	730
1	1952	731
1	1979	732
1	2007	733
1	2032	734
1	2052	735
1	2065	736
1	2057	737
1	2049	738
1	2029	739
1	2009	740
1	1979	741
1	1947	742
1	1922	743
1	1895	744
1	1869	745
1	1861	746
1	1860	747
1	1868	748
1	1885	749
1	1909	750
1	1934	751
1	1948	752
1	1963	753
1	1980	754
1	1996	755
1	2004	756
1	2010	757
1	2004	758
1	1993	759
1	1978	760
1	1961	761
1	1946	762
1	1929	763
1	1909	764
1	1895	765
1	1874	766
1	1870	767
1	1881	768
1	1896	769
1	1918	770
1	1947	771
1	1970	772
1	2000	773
1	2022	774
1	2038	775
1	2052	776
1	2062	777
1	2066	778
1	2057	779
1	2040	780
1	2019	781
1	1996	782
1	1966	783
1	1944	784
1	1926	785
1	1920	786
1	1918	787
1	1933	788
1	1948	789
1	1970	790
1	1995	791
1	2024	792
1	2054	793
1	2083	794
1	2102	795
1	2109	796
1	2105	797
1	2083	798
1	2063	799
1	2039	800
1	2012	801
1	1986	802
1	1969	803
1	1945	804
1	1922	805
1	1908	806
1	1906	807
1	1911	808
1	1924	809
1	1947	810
1	1969	811
1	1995	812
1	2010	813
1	2027	814
1	2042	815
1	2054	816
1	2060	817
1	2066	818
1	2058	819
1	2043	820
1	2023	821
1	2001	822
1	1977	823
1	1959	824
1	1946	825
1	1940	826
1	1940	827
1	1937	828
1	1948	829
1	1962	830
1	1983	831
1	2010	832
1	2041	833
1	2066	834
1	2085	835
1	2103	836
1	2111	837
1	2113	838
1	2097	839
1	2061	860
1	2060	861
1	2050	862
1	2038	863
1	2016	864
1	2000	865
1	1987	866
1	1981	867
1	1991	868
1	2012	869
1	2037	870
1	2066	871
1	2093	872
1	2109	873
1	2127	874
1	2140	875
1	2149	876
1	2150	877
1	2151	878
1	2133	879
1	2079	840
1	2051	841
1	2017	842
1	1982	843
1	1953	844
1	1933	845
1	1922	846
1	1921	847
1	1926	848
1	1942	849
1	1953	850
1	1971	851
1	1976	852
1	1985	853
1	1991	854
1	2000	855
1	2012	856
1	2026	857
1	2037	858
1	2052	859
1	2058	900
1	2049	901
1	2041	902
1	2026	903
1	2016	904
1	2009	905
1	2003	906
1	1999	907
1	2006	908
1	2012	909
1	2024	910
1	2040	911
1	2058	912
1	2081	913
1	2103	914
1	2115	915
1	2123	916
1	2122	917
1	2112	918
1	2104	919
1	2114	880
1	2089	881
1	2061	882
1	2035	883
1	2008	884
1	1984	885
1	1965	886
1	1950	887
1	1932	888
1	1922	889
1	1923	890
1	1933	891
1	1947	892
1	1969	893
1	1991	894
1	2010	895
1	2026	896
1	2042	897
1	2054	898
1	2061	899
1	2083	920
1	2053	921
1	2021	922
1	1991	923
1	1961	924
1	1940	925
1	1931	926
1	1934	927
1	1948	928
1	1973	929
1	2006	930
1	2045	931
1	2084	932
1	2118	933
1	2157	934
1	2190	935
1	2210	936
1	2222	937
1	2222	938
1	2197	939
1	2174	940
1	2147	941
1	2105	942
1	2061	943
1	2026	944
1	1995	945
1	1972	946
1	1957	947
1	1950	948
1	1952	949
1	1962	950
1	1981	951
1	2005	952
1	2026	953
1	2053	954
1	2075	955
1	2093	956
1	2097	957
1	2095	958
1	2079	959
1	2062	960
1	2031	961
1	2007	962
1	1973	963
1	1945	964
1	1926	965
1	1912	966
1	1908	967
1	1926	968
1	1952	969
1	1987	970
1	2030	971
1	2079	972
1	2120	973
1	2149	974
1	2171	975
1	2183	976
1	2189	977
1	2183	978
1	2166	979
1	2146	980
1	2124	981
1	2104	982
1	2097	983
1	2081	984
1	2075	985
1	2066	986
1	2062	987
1	2061	988
1	2062	989
1	2067	990
1	2070	991
1	2076	992
1	2076	993
1	2083	994
1	2094	995
1	2105	996
1	2112	997
1	2124	998
1	2119	999
1	2111	1000
1	2093	1001
1	2066	1002
1	2039	1003
1	2008	1004
1	1981	1005
1	1963	1006
1	1959	1007
1	1960	1008
1	1976	1009
1	1999	1010
1	2025	1011
1	2052	1012
1	2084	1013
1	2105	1014
1	2120	1015
1	2130	1016
1	2136	1017
1	2131	1018
1	2119	1019
1	2097	1020
1	2067	1021
1	2043	1022
1	2013	1023
1	1993	1024
1	1977	1025
1	1970	1026
1	1966	1027
1	1974	1028
1	1980	1029
1	1993	1030
1	2011	1031
1	2032	1032
1	2058	1033
1	2093	1034
1	2131	1035
1	2162	1036
1	2188	1037
1	2192	1038
1	2191	1039
1	2175	1040
1	2157	1041
1	2132	1042
1	2113	1043
1	2089	1044
1	2066	1045
1	2061	1046
1	2057	1047
1	2053	1048
1	2057	1049
1	2067	1050
1	2081	1051
1	2095	1052
1	2104	1053
1	2106	1054
1	2106	1055
1	2106	1056
1	2107	1057
1	2106	1058
1	2113	1059
1	2158	1080
1	2137	1081
1	2114	1082
1	2079	1083
1	2055	1084
1	2035	1085
1	2016	1086
1	2003	1087
1	2007	1088
1	2013	1089
1	2026	1090
1	2047	1091
1	2068	1092
1	2093	1093
1	2125	1094
1	2148	1095
1	2166	1096
1	2179	1097
1	2170	1098
1	2160	1099
1	2118	1060
1	2132	1061
1	2137	1062
1	2143	1063
1	2142	1064
1	2136	1065
1	2131	1066
1	2131	1067
1	2126	1068
1	2127	1069
1	2131	1070
1	2140	1071
1	2152	1072
1	2166	1073
1	2172	1074
1	2176	1075
1	2183	1076
1	2183	1077
1	2183	1078
1	2171	1079
1	2152	1100
1	2137	1101
1	2117	1102
1	2097	1103
1	2073	1104
1	2052	1105
1	2039	1106
1	2036	1107
1	2034	1108
1	2040	1109
1	2052	1110
1	2073	1111
1	2094	1112
1	2106	1113
1	2123	1114
1	2135	1115
1	2144	1116
1	2148	1117
1	2153	1118
1	2145	1119
1	2130	1120
1	2111	1121
1	2092	1122
1	2066	1123
1	2042	1124
1	2018	1125
1	1998	1126
1	1976	1127
1	1955	1128
1	1948	1129
1	1948	1130
1	1957	1131
1	1973	1132
1	1995	1133
1	2012	1134
1	2027	1135
1	2042	1136
1	2054	1137
1	2066	1138
1	2064	1139
1	2019	1160
1	1988	1161
1	1955	1162
1	1936	1163
1	1922	1164
1	1922	1165
1	1931	1166
1	1945	1167
1	1957	1168
1	1965	1169
1	1974	1170
1	1980	1171
1	1993	1172
1	2001	1173
1	2030	1174
1	2069	1175
1	2108	1176
1	2155	1177
1	2197	1178
1	2233	1179
1	2058	1140
1	2042	1141
1	2017	1142
1	1990	1143
1	1961	1144
1	1935	1145
1	1913	1146
1	1893	1147
1	1886	1148
1	1892	1149
1	1910	1150
1	1953	1151
1	1994	1152
1	2034	1153
1	2074	1154
1	2096	1155
1	2103	1156
1	2093	1157
1	2070	1158
1	2048	1159
1	2255	1180
1	2270	1181
1	2275	1182
1	2274	1183
1	2277	1184
1	2288	1185
1	2304	1186
1	2323	1187
1	2339	1188
1	2372	1189
1	2419	1190
1	2477	1191
1	2535	1192
1	2604	1193
1	2676	1194
1	2743	1195
1	2790	1196
1	2818	1197
1	2818	1198
1	2801	1199
1	2766	1200
1	2716	1201
1	2644	1202
1	2546	1203
1	2441	1204
1	2314	1205
1	2189	1206
1	2075	1207
1	1983	1208
1	1908	1209
1	1852	1210
1	1819	1211
1	1803	1212
1	1799	1213
1	1809	1214
1	1821	1215
1	1841	1216
1	1860	1217
1	1877	1218
1	1895	1219
1	1909	1220
1	1922	1221
1	1929	1222
1	1937	1223
1	1931	1224
1	1922	1225
1	1913	1226
1	1904	1227
1	1896	1228
1	1898	1229
1	1912	1230
1	1935	1231
1	1967	1232
1	1991	1233
1	2019	1234
1	2036	1235
1	2040	1236
1	2037	1237
1	2031	1238
1	2013	1239
1	2012	1240
1	1999	1241
1	1999	1242
1	1995	1243
1	1989	1244
1	1986	1245
1	1982	1246
1	1982	1247
1	1989	1248
1	2000	1249
1	2016	1250
1	2029	1251
1	2038	1252
1	2042	1253
1	2042	1254
1	2039	1255
1	2039	1256
1	2030	1257
1	2021	1258
1	2003	1259
1	1986	1260
1	1963	1261
1	1949	1262
1	1934	1263
1	1929	1264
1	1936	1265
1	1948	1266
1	1963	1267
1	1989	1268
1	2013	1269
1	2032	1270
1	2057	1271
1	2082	1272
1	2106	1273
1	2130	1274
1	2139	1275
1	2145	1276
1	2143	1277
1	2128	1278
1	2106	1279
1	2076	1280
1	2035	1281
1	1999	1282
1	1972	1283
1	1948	1284
1	1932	1285
1	1925	1286
1	1929	1287
1	1939	1288
1	1949	1289
1	1962	1290
1	1980	1291
1	2003	1292
1	2012	1293
1	2025	1294
1	2038	1295
1	2052	1296
1	2061	1297
1	2075	1298
1	2074	1299
1	2068	1300
1	2060	1301
1	2052	1302
1	2048	1303
1	2034	1304
1	2016	1305
1	1998	1306
1	1987	1307
1	1981	1308
1	2000	1309
1	2029	1310
1	2067	1311
1	2106	1312
1	2147	1313
1	2165	1314
1	2168	1315
1	2156	1316
1	2131	1317
1	2105	1318
1	2076	1319
1	2039	1340
1	2013	1341
1	1981	1342
1	1968	1343
1	1955	1344
1	1949	1345
1	1976	1346
1	2006	1347
1	2031	1348
1	2065	1349
1	2094	1350
1	2125	1351
1	2153	1352
1	2174	1353
1	2191	1354
1	2201	1355
1	2204	1356
1	2210	1357
1	2199	1358
1	2187	1359
1	2055	1340
1	2044	1341
1	2031	1342
1	2012	1343
1	1994	1344
1	1980	1345
1	1975	1346
1	1974	1347
1	1983	1348
1	1992	1349
1	2003	1350
1	2023	1351
1	2043	1352
1	2066	1353
1	2093	1354
1	2118	1355
1	2130	1356
1	2131	1357
1	2104	1358
1	2071	1359
1	2171	1360
1	2150	1361
1	2124	1362
1	2088	1363
1	2057	1364
1	2030	1365
1	2013	1366
1	2006	1367
1	1990	1368
1	1991	1369
1	2004	1370
1	2029	1371
1	2058	1372
1	2084	1373
1	2103	1374
1	2112	1375
1	2122	1376
1	2119	1377
1	2111	1378
1	2101	1379
1	2093	1380
1	2091	1381
1	2080	1382
1	2065	1383
1	2052	1384
1	2037	1385
1	2026	1386
1	2029	1387
1	2050	1388
1	2066	1389
1	2091	1390
1	2116	1391
1	2142	1392
1	2161	1393
1	2181	1394
1	2194	1395
1	2205	1396
1	2210	1397
1	2201	1398
1	2189	1399
1	2179	1400
1	2165	1401
1	2152	1402
1	2144	1403
1	2129	1404
1	2120	1405
1	2117	1406
1	2126	1407
1	2155	1408
1	2183	1409
1	2217	1410
1	2251	1411
1	2287	1412
1	2314	1413
1	2338	1414
1	2346	1415
1	2344	1416
1	2318	1417
1	2279	1418
1	2215	1419
1	2153	1420
1	2096	1421
1	2050	1422
1	2012	1423
1	1993	1424
1	1978	1425
1	1979	1426
1	1995	1427
1	2014	1428
1	2052	1429
1	2090	1430
1	2135	1431
1	2183	1432
1	2235	1433
1	2272	1434
1	2305	1435
1	2327	1436
1	2341	1437
1	2345	1438
1	2330	1439
1	2316	1440
1	2289	1441
1	2260	1442
1	2215	1443
1	2179	1444
1	2142	1445
1	2116	1446
1	2091	1447
1	2075	1448
1	2071	1449
1	2080	1450
1	2112	1451
1	2143	1452
1	2179	1453
1	2210	1454
1	2236	1455
1	2243	1456
1	2236	1457
1	2195	1458
1	2155	1459
1	2105	1460
1	2057	1461
1	2005	1462
1	1962	1463
1	1921	1464
1	1884	1465
1	1859	1466
1	1846	1467
1	1842	1468
1	1847	1469
1	1865	1470
1	1887	1471
1	1911	1472
1	1935	1473
1	1969	1474
1	2000	1475
1	2018	1476
1	2026	1477
1	2027	1478
1	2011	1479
1	1978	1480
1	1947	1481
1	1904	1482
1	1861	1483
1	1819	1484
1	1790	1485
1	1773	1486
1	1773	1487
1	1766	1488
1	1775	1489
1	1783	1490
1	1793	1491
1	1816	1492
1	1835	1493
1	1852	1494
1	1869	1495
1	1885	1496
1	1898	1497
1	1899	1498
1	1890	1499
1	1870	1500
1	1853	1501
1	1830	1502
1	1796	1503
1	1774	1504
1	1762	1505
1	1751	1506
1	1752	1507
1	1764	1508
1	1775	1509
1	1782	1510
1	1791	1511
1	1808	1512
1	1817	1513
1	1828	1514
1	1834	1515
1	1835	1516
1	1832	1517
1	1815	1518
1	1789	1519
1	1756	1520
1	1712	1521
1	1664	1522
1	1625	1523
1	1583	1524
1	1557	1525
1	1544	1526
1	1543	1527
1	1555	1528
1	1581	1529
1	1620	1530
1	1665	1531
1	1711	1532
1	1747	1533
1	1788	1534
1	1819	1535
1	1841	1536
1	1844	1537
1	1847	1538
1	1824	1539
1	1809	1540
1	1762	1541
1	1724	1542
1	1676	1543
1	1634	1544
1	1598	1545
1	1567	1546
1	1548	1547
1	1542	1548
1	1553	1549
1	1580	1550
1	1615	1551
1	1659	1552
1	1712	1553
1	1762	1554
1	1802	1555
1	1845	1556
1	1860	1557
1	1862	1558
1	1849	1559
1	1830	1560
1	1800	1561
1	1764	1562
1	1724	1563
1	1686	1564
1	1654	1565
1	1632	1566
1	1622	1567
1	1633	1568
1	1647	1569
1	1675	1570
1	1707	1571
1	1735	1572
1	1755	1573
1	1769	1574
1	1777	1575
1	1782	1576
1	1785	1577
1	1775	1578
1	1763	1579
1	1737	1580
1	1699	1581
1	1660	1582
1	1626	1583
1	1596	1584
1	1574	1585
1	1557	1586
1	1555	1587
1	1565	1588
1	1587	1589
1	1618	1590
1	1654	1591
1	1687	1592
1	1716	1593
1	1740	1594
1	1759	1595
1	1763	1596
1	1760	1597
1	1751	1598
1	1727	1599
1	1698	1600
1	1661	1601
1	1629	1602
1	1601	1603
1	1577	1604
1	1554	1605
1	1533	1606
1	1528	1607
1	1529	1608
1	1545	1609
1	1566	1610
1	1593	1611
1	1631	1612
1	1677	1613
1	1723	1614
1	1764	1615
1	1792	1616
1	1813	1617
1	1813	1618
1	1795	1619
1	1769	1620
1	1731	1621
1	1686	1622
1	1634	1623
1	1592	1624
1	1555	1625
1	1526	1626
1	1503	1627
1	1501	1628
1	1503	1629
1	1523	1630
1	1556	1631
1	1604	1632
1	1656	1633
1	1701	1634
1	1739	1635
1	1770	1636
1	1802	1637
1	1819	1638
1	1834	1639
1	1830	1640
1	1818	1641
1	1793	1642
1	1773	1643
1	1737	1644
1	1686	1645
1	1642	1646
1	1599	1647
1	1566	1648
1	1545	1649
1	1538	1650
1	1541	1651
1	1555	1652
1	1575	1653
1	1599	1654
1	1620	1655
1	1643	1656
1	1657	1657
1	1665	1658
1	1662	1659
1	1661	1680
1	1643	1681
1	1618	1682
1	1589	1683
1	1572	1684
1	1570	1685
1	1571	1686
1	1574	1687
1	1580	1688
1	1581	1689
1	1590	1690
1	1606	1691
1	1626	1692
1	1647	1693
1	1660	1694
1	1673	1695
1	1683	1696
1	1686	1697
1	1681	1698
1	1677	1699
1	1655	1660
1	1624	1661
1	1592	1662
1	1564	1663
1	1538	1664
1	1508	1665
1	1486	1666
1	1467	1667
1	1463	1668
1	1479	1669
1	1514	1670
1	1557	1671
1	1603	1672
1	1647	1673
1	1677	1674
1	1694	1675
1	1701	1676
1	1700	1677
1	1694	1678
1	1681	1679
1	1664	1700
1	1641	1701
1	1615	1702
1	1593	1703
1	1562	1704
1	1539	1705
1	1520	1706
1	1508	1707
1	1505	1708
1	1508	1709
1	1511	1710
1	1521	1711
1	1539	1712
1	1559	1713
1	1590	1714
1	1625	1715
1	1656	1716
1	1675	1717
1	1686	1718
1	1670	1719
1	1641	1720
1	1607	1721
1	1562	1722
1	1525	1723
1	1490	1724
1	1463	1725
1	1449	1726
1	1442	1727
1	1441	1728
1	1453	1729
1	1485	1730
1	1529	1731
1	1577	1732
1	1626	1733
1	1665	1734
1	1701	1735
1	1729	1736
1	1739	1737
1	1738	1738
1	1701	1739
1	1665	1740
1	1610	1741
1	1555	1742
1	1503	1743
1	1449	1744
1	1399	1745
1	1366	1746
1	1355	1747
1	1364	1748
1	1383	1749
1	1420	1750
1	1461	1751
1	1503	1752
1	1542	1753
1	1581	1754
1	1618	1755
1	1647	1756
1	1670	1757
1	1672	1758
1	1668	1759
1	1647	1760
1	1611	1761
1	1572	1762
1	1535	1763
1	1498	1764
1	1467	1765
1	1448	1766
1	1443	1767
1	1450	1768
1	1474	1769
1	1498	1770
1	1528	1771
1	1555	1772
1	1581	1773
1	1607	1774
1	1632	1775
1	1647	1776
1	1657	1777
1	1642	1778
1	1611	1779
1	1579	1780
1	1531	1781
1	1484	1782
1	1438	1783
1	1400	1784
1	1369	1785
1	1346	1786
1	1337	1787
1	1340	1788
1	1363	1789
1	1401	1790
1	1445	1791
1	1485	1792
1	1530	1793
1	1568	1794
1	1595	1795
1	1611	1796
1	1621	1797
1	1616	1798
1	1598	1799
1	1576	1800
1	1549	1801
1	1526	1802
1	1490	1803
1	1464	1804
1	1449	1805
1	1442	1806
1	1450	1807
1	1474	1808
1	1499	1809
1	1529	1810
1	1556	1811
1	1581	1812
1	1594	1813
1	1607	1814
1	1607	1815
1	1602	1816
1	1584	1817
1	1555	1818
1	1527	1819
1	1501	1820
1	1485	1821
1	1476	1822
1	1475	1823
1	1469	1824
1	1467	1825
1	1469	1826
1	1481	1827
1	1507	1828
1	1543	1829
1	1582	1830
1	1618	1831
1	1642	1832
1	1650	1833
1	1656	1834
1	1661	1835
1	1660	1836
1	1649	1837
1	1634	1838
1	1600	1839
1	1621	1860
1	1593	1861
1	1564	1862
1	1529	1863
1	1494	1864
1	1464	1865
1	1435	1866
1	1410	1867
1	1402	1868
1	1399	1869
1	1409	1870
1	1422	1871
1	1437	1872
1	1459	1873
1	1487	1874
1	1517	1875
1	1541	1876
1	1559	1877
1	1576	1878
1	1592	1879
1	1581	1840
1	1568	1841
1	1545	1842
1	1529	1843
1	1515	1844
1	1494	1845
1	1472	1846
1	1450	1847
1	1442	1848
1	1449	1849
1	1472	1850
1	1495	1851
1	1528	1852
1	1557	1853
1	1587	1854
1	1619	1855
1	1649	1856
1	1664	1857
1	1664	1858
1	1647	1859
1	1598	1880
1	1593	1881
1	1575	1882
1	1556	1883
1	1530	1884
1	1502	1885
1	1475	1886
1	1454	1887
1	1443	1888
1	1440	1889
1	1440	1890
1	1443	1891
1	1448	1892
1	1450	1893
1	1465	1894
1	1479	1895
1	1494	1896
1	1503	1897
1	1514	1898
1	1523	1899
1	1528	1900
1	1526	1901
1	1517	1902
1	1504	1903
1	1490	1904
1	1477	1905
1	1464	1906
1	1452	1907
1	1441	1908
1	1440	1909
1	1445	1910
1	1455	1911
1	1476	1912
1	1507	1913
1	1531	1914
1	1555	1915
1	1571	1916
1	1580	1917
1	1579	1918
1	1566	1919
1	1548	1920
1	1524	1921
1	1497	1922
1	1461	1923
1	1428	1924
1	1399	1925
1	1377	1926
1	1373	1927
1	1384	1928
1	1399	1929
1	1418	1930
1	1438	1931
1	1459	1932
1	1481	1933
1	1504	1934
1	1529	1935
1	1545	1936
1	1553	1937
1	1553	1938
1	1554	1939
1	1551	1940
1	1542	1941
1	1517	1942
1	1495	1943
1	1458	1944
1	1417	1945
1	1379	1946
1	1346	1947
1	1319	1948
1	1315	1949
1	1327	1950
1	1357	1951
1	1405	1952
1	1454	1953
1	1507	1954
1	1562	1955
1	1616	1956
1	1661	1957
1	1705	1958
1	1731	1959
1	1746	1960
1	1760	1961
1	1764	1962
1	1768	1963
1	1772	1964
1	1775	1965
1	1789	1966
1	1813	1967
1	1843	1968
1	1893	1969
1	1949	1970
1	2019	1971
1	2084	1972
1	2150	1973
1	2192	1974
1	2221	1975
1	2237	1976
1	2233	1977
1	2198	1978
1	2147	1979
1	2076	1980
1	1985	1981
1	1883	1982
1	1764	1983
1	1655	1984
1	1544	1985
1	1445	1986
1	1359	1987
1	1301	1988
1	1262	1989
1	1241	1990
1	1241	1991
1	1260	1992
1	1283	1993
1	1315	1994
1	1351	1995
1	1391	1996
1	1422	1997
1	1430	1998
1	1437	1999
1	1435	2000
1	1422	2001
1	1404	2002
1	1384	2003
1	1371	2004
1	1353	2005
1	1345	2006
1	1341	2007
1	1343	2008
1	1357	2009
1	1382	2010
1	1419	2011
1	1450	2012
1	1476	2013
1	1503	2014
1	1521	2015
1	1534	2016
1	1534	2017
1	1529	2018
1	1503	2019
1	1476	2020
1	1437	2021
1	1407	2022
1	1391	2023
1	1382	2024
1	1382	2025
1	1398	2026
1	1414	2027
1	1432	2028
1	1454	2029
1	1480	2030
1	1501	2031
1	1508	2032
1	1520	2033
1	1517	2034
1	1513	2035
1	1507	2036
1	1499	2037
1	1476	2038
1	1443	2039
1	1424	2040
1	1398	2041
1	1364	2042
1	1338	2043
1	1319	2044
1	1305	2045
1	1296	2046
1	1294	2047
1	1309	2048
1	1327	2049
1	1358	2050
1	1405	2051
1	1448	2052
1	1490	2053
1	1534	2054
1	1567	2055
1	1584	2056
1	1592	2057
1	1581	2058
1	1566	2059
1	1553	2080
1	1536	2081
1	1527	2082
1	1523	2083
1	1514	2084
1	1502	2085
1	1485	2086
1	1474	2087
1	1459	2088
1	1458	2089
1	1463	2090
1	1474	2091
1	1487	2092
1	1508	2093
1	1529	2094
1	1551	2095
1	1567	2096
1	1580	2097
1	1580	2098
1	1577	2099
1	1546	2060
1	1525	2061
1	1497	2062
1	1469	2063
1	1433	2064
1	1398	2065
1	1371	2066
1	1357	2067
1	1355	2068
1	1364	2069
1	1377	2070
1	1403	2071
1	1435	2072
1	1465	2073
1	1503	2074
1	1529	2075
1	1542	2076
1	1553	2077
1	1561	2078
1	1559	2079
1	1562	2100
1	1530	2101
1	1491	2102
1	1443	2103
1	1399	2104
1	1359	2105
1	1337	2106
1	1330	2107
1	1348	2108
1	1377	2109
1	1415	2110
1	1451	2111
1	1490	2112
1	1529	2113
1	1561	2114
1	1593	2115
1	1616	2116
1	1632	2117
1	1634	2118
1	1637	2119
1	1633	2120
1	1613	2121
1	1595	2122
1	1580	2123
1	1564	2124
1	1548	2125
1	1529	2126
1	1508	2127
1	1494	2128
1	1485	2129
1	1490	2130
1	1498	2131
1	1512	2132
1	1518	2133
1	1530	2134
1	1541	2135
1	1548	2136
1	1551	2137
1	1555	2138
1	1552	2139
1	1609	2160
1	1576	2161
1	1544	2162
1	1512	2163
1	1490	2164
1	1478	2165
1	1478	2166
1	1495	2167
1	1525	2168
1	1548	2169
1	1571	2170
1	1589	2171
1	1603	2172
1	1620	2173
1	1633	2174
1	1644	2175
1	1656	2176
1	1667	2177
1	1680	2178
1	1693	2179
1	1553	2140
1	1555	2141
1	1544	2142
1	1530	2143
1	1517	2144
1	1503	2145
1	1492	2146
1	1490	2147
1	1507	2148
1	1532	2149
1	1564	2150
1	1591	2151
1	1615	2152
1	1647	2153
1	1670	2154
1	1688	2155
1	1700	2156
1	1692	2157
1	1677	2158
1	1647	2159
1	1703	2180
1	1701	2181
1	1692	2182
1	1675	2183
1	1647	2184
1	1620	2185
1	1598	2186
1	1584	2187
1	1579	2188
1	1580	2189
1	1590	2190
1	1608	2191
1	1642	2192
1	1674	2193
1	1715	2194
1	1755	2195
1	1791	2196
1	1824	2197
1	1852	2198
1	1865	2199
1	1867	2200
1	1842	2201
1	1800	2202
1	1755	2203
1	1712	2204
1	1670	2205
1	1641	2206
1	1619	2207
1	1602	2208
1	1594	2209
1	1596	2210
1	1607	2211
1	1622	2212
1	1648	2213
1	1674	2214
1	1698	2215
1	1718	2216
1	1731	2217
1	1725	2218
1	1706	2219
1	1570	2240
1	1548	2241
1	1521	2242
1	1502	2243
1	1467	2244
1	1430	2245
1	1398	2246
1	1351	2247
1	1319	2248
1	1296	2249
1	1293	2250
1	1297	2251
1	1319	2252
1	1344	2253
1	1373	2254
1	1402	2255
1	1420	2256
1	1420	2257
1	1418	2258
1	1402	2259
1	1676	2220
1	1637	2221
1	1594	2222
1	1554	2223
1	1526	2224
1	1503	2225
1	1484	2226
1	1472	2227
1	1466	2228
1	1458	2229
1	1456	2230
1	1459	2231
1	1476	2232
1	1505	2233
1	1539	2234
1	1570	2235
1	1590	2236
1	1604	2237
1	1599	2238
1	1589	2239
1	1380	2260
1	1360	2261
1	1332	2262
1	1307	2263
1	1282	2264
1	1259	2265
1	1233	2266
1	1214	2267
1	1201	2268
1	1201	2269
1	1209	2270
1	1228	2271
1	1265	2272
1	1305	2273
1	1345	2274
1	1382	2275
1	1419	2276
1	1437	2277
1	1437	2278
1	1423	2279
1	1398	2280
1	1358	2281
1	1320	2282
1	1279	2283
1	1242	2284
1	1215	2285
1	1200	2286
1	1192	2287
1	1200	2288
1	1215	2289
1	1233	2290
1	1259	2291
1	1285	2292
1	1318	2293
1	1347	2294
1	1382	2295
1	1416	2296
1	1436	2297
1	1435	2298
1	1422	2299
1	1398	2300
1	1359	2301
1	1319	2302
1	1285	2303
1	1242	2304
1	1210	2305
1	1188	2306
1	1175	2307
1	1170	2308
1	1170	2309
1	1179	2310
1	1197	2311
1	1224	2312
1	1242	2313
1	1267	2314
1	1284	2315
1	1298	2316
1	1309	2317
1	1320	2318
1	1327	2319
1	1328	2320
1	1320	2321
1	1314	2322
1	1294	2323
1	1278	2324
1	1260	2325
1	1243	2326
1	1235	2327
1	1229	2328
1	1241	2329
1	1268	2330
1	1311	2331
1	1356	2332
1	1406	2333
1	1440	2334
1	1464	2335
1	1475	2336
1	1458	2337
1	1423	2338
1	1355	2339
1	1316	2340
1	1265	2341
1	1213	2342
1	1161	2343
1	1116	2344
1	1085	2345
1	1080	2346
1	1081	2347
1	1109	2348
1	1148	2349
1	1190	2350
1	1245	2351
1	1296	2352
1	1345	2353
1	1384	2354
1	1418	2355
1	1439	2356
1	1449	2357
1	1443	2358
1	1433	2359
1	1410	2360
1	1373	2361
1	1340	2362
1	1314	2363
1	1285	2364
1	1260	2365
1	1237	2366
1	1225	2367
1	1230	2368
1	1247	2369
1	1271	2370
1	1301	2371
1	1332	2372
1	1359	2373
1	1395	2374
1	1421	2375
1	1432	2376
1	1434	2377
1	1427	2378
1	1406	2379
1	1412	2400
1	1366	2401
1	1323	2402
1	1280	2403
1	1242	2404
1	1215	2405
1	1197	2406
1	1201	2407
1	1215	2408
1	1241	2409
1	1279	2410
1	1319	2411
1	1364	2412
1	1410	2413
1	1448	2414
1	1474	2415
1	1489	2416
1	1497	2417
1	1488	2418
1	1476	2419
1	1372	2380
1	1335	2381
1	1295	2382
1	1261	2383
1	1233	2384
1	1217	2385
1	1213	2386
1	1215	2387
1	1224	2388
1	1255	2389
1	1293	2390
1	1334	2391
1	1384	2392
1	1436	2393
1	1475	2394
1	1494	2395
1	1500	2396
1	1490	2397
1	1473	2398
1	1446	2399
1	1450	2420
1	1412	2421
1	1359	2422
1	1304	2423
1	1251	2424
1	1211	2425
1	1177	2426
1	1158	2427
1	1159	2428
1	1179	2429
1	1215	2430
1	1260	2431
1	1298	2432
1	1334	2433
1	1372	2434
1	1398	2435
1	1417	2436
1	1433	2437
1	1439	2438
1	1445	2439
1	1429	2460
1	1398	2461
1	1358	2462
1	1314	2463
1	1279	2464
1	1254	2465
1	1241	2466
1	1241	2467
1	1259	2468
1	1287	2469
1	1323	2470
1	1366	2471
1	1403	2472
1	1433	2473
1	1448	2474
1	1461	2475
1	1465	2476
1	1461	2477
1	1438	2478
1	1419	2479
1	1441	2440
1	1448	2441
1	1430	2442
1	1409	2443
1	1374	2444
1	1351	2445
1	1332	2446
1	1320	2447
1	1319	2448
1	1328	2449
1	1347	2450
1	1376	2451
1	1413	2452
1	1441	2453
1	1463	2454
1	1476	2455
1	1490	2456
1	1486	2457
1	1474	2458
1	1450	2459
1	1416	2500
1	1403	2501
1	1396	2502
1	1380	2503
1	1376	2504
1	1372	2505
1	1376	2506
1	1393	2507
1	1406	2508
1	1426	2509
1	1440	2510
1	1450	2511
1	1459	2512
1	1462	2513
1	1462	2514
1	1458	2515
1	1450	2516
1	1439	2517
1	1422	2518
1	1397	2519
1	1395	2480
1	1363	2481
1	1331	2482
1	1303	2483
1	1275	2484
1	1265	2485
1	1260	2486
1	1265	2487
1	1279	2488
1	1296	2489
1	1316	2490
1	1321	2491
1	1323	2492
1	1320	2493
1	1332	2494
1	1348	2495
1	1375	2496
1	1406	2497
1	1423	2498
1	1424	2499
1	1556	2540
1	1523	2541
1	1485	2542
1	1450	2543
1	1412	2544
1	1369	2545
1	1337	2546
1	1304	2547
1	1287	2548
1	1283	2549
1	1291	2550
1	1317	2551
1	1344	2552
1	1375	2553
1	1413	2554
1	1441	2555
1	1473	2556
1	1495	2557
1	1504	2558
1	1503	2559
1	1362	2520
1	1334	2521
1	1310	2522
1	1293	2523
1	1294	2524
1	1305	2525
1	1315	2526
1	1327	2527
1	1332	2528
1	1341	2529
1	1353	2530
1	1376	2531
1	1411	2532
1	1450	2533
1	1491	2534
1	1529	2535
1	1559	2536
1	1581	2537
1	1587	2538
1	1581	2539
1	1499	2560
1	1469	2561
1	1435	2562
1	1395	2563
1	1353	2564
1	1321	2565
1	1297	2566
1	1287	2567
1	1282	2568
1	1291	2569
1	1310	2570
1	1337	2571
1	1368	2572
1	1402	2573
1	1434	2574
1	1458	2575
1	1481	2576
1	1494	2577
1	1503	2578
1	1510	2579
1	1514	2580
1	1512	2581
1	1502	2582
1	1477	2583
1	1450	2584
1	1422	2585
1	1384	2586
1	1350	2587
1	1332	2588
1	1328	2589
1	1341	2590
1	1370	2591
1	1406	2592
1	1445	2593
1	1485	2594
1	1528	2595
1	1563	2596
1	1581	2597
1	1594	2598
1	1593	2599
1	1581	2600
1	1564	2601
1	1537	2602
1	1507	2603
1	1476	2604
1	1450	2605
1	1436	2606
1	1433	2607
1	1438	2608
1	1449	2609
1	1458	2610
1	1469	2611
1	1481	2612
1	1490	2613
1	1500	2614
1	1505	2615
1	1513	2616
1	1527	2617
1	1550	2618
1	1566	2619
1	1579	2620
1	1580	2621
1	1569	2622
1	1548	2623
1	1528	2624
1	1503	2625
1	1486	2626
1	1474	2627
1	1466	2628
1	1465	2629
1	1471	2630
1	1476	2631
1	1482	2632
1	1501	2633
1	1510	2634
1	1520	2635
1	1528	2636
1	1528	2637
1	1525	2638
1	1517	2639
1	1503	2640
1	1487	2641
1	1469	2642
1	1449	2643
1	1424	2644
1	1402	2645
1	1384	2646
1	1381	2647
1	1383	2648
1	1398	2649
1	1424	2650
1	1453	2651
1	1487	2652
1	1520	2653
1	1547	2654
1	1570	2655
1	1580	2656
1	1581	2657
1	1567	2658
1	1556	2659
1	1543	2660
1	1523	2661
1	1494	2662
1	1461	2663
1	1420	2664
1	1373	2665
1	1343	2666
1	1323	2667
1	1321	2668
1	1337	2669
1	1361	2670
1	1398	2671
1	1437	2672
1	1469	2673
1	1502	2674
1	1525	2675
1	1542	2676
1	1549	2677
1	1548	2678
1	1531	2679
1	1489	2700
1	1458	2701
1	1424	2702
1	1397	2703
1	1366	2704
1	1346	2705
1	1337	2706
1	1333	2707
1	1346	2708
1	1363	2709
1	1384	2710
1	1418	2711
1	1445	2712
1	1471	2713
1	1495	2714
1	1526	2715
1	1553	2716
1	1569	2717
1	1571	2718
1	1565	2719
1	1507	2680
1	1476	2681
1	1443	2682
1	1406	2683
1	1373	2684
1	1353	2685
1	1348	2686
1	1359	2687
1	1379	2688
1	1414	2689
1	1450	2690
1	1494	2691
1	1538	2692
1	1566	2693
1	1580	2694
1	1581	2695
1	1574	2696
1	1557	2697
1	1541	2698
1	1518	2699
1	1553	2720
1	1528	2721
1	1494	2722
1	1468	2723
1	1440	2724
1	1424	2725
1	1422	2726
1	1426	2727
1	1450	2728
1	1491	2729
1	1545	2730
1	1606	2731
1	1670	2732
1	1734	2733
1	1801	2734
1	1865	2735
1	1914	2736
1	1961	2737
1	1993	2738
1	2019	2739
1	2025	2740
1	2043	2741
1	2043	2742
1	2052	2743
1	2065	2744
1	2077	2745
1	2086	2746
1	2094	2747
1	2097	2748
1	2100	2749
1	2091	2750
1	2079	2751
1	2067	2752
1	2037	2753
1	1996	2754
1	1947	2755
1	1893	2756
1	1834	2757
1	1761	2758
1	1682	2759
1	1599	2760
1	1521	2761
1	1446	2762
1	1373	2763
1	1319	2764
1	1286	2765
1	1278	2766
1	1286	2767
1	1305	2768
1	1324	2769
1	1351	2770
1	1384	2771
1	1418	2772
1	1451	2773
1	1491	2774
1	1531	2775
1	1566	2776
1	1589	2777
1	1594	2778
1	1588	2779
1	1570	2780
1	1537	2781
1	1503	2782
1	1478	2783
1	1458	2784
1	1445	2785
1	1435	2786
1	1428	2787
1	1433	2788
1	1440	2789
1	1450	2790
1	1467	2791
1	1487	2792
1	1503	2793
1	1523	2794
1	1536	2795
1	1544	2796
1	1541	2797
1	1539	2798
1	1526	2799
1	1511	2800
1	1499	2801
1	1495	2802
1	1503	2803
1	1521	2804
1	1542	2805
1	1562	2806
1	1581	2807
1	1590	2808
1	1607	2809
1	1620	2810
1	1634	2811
1	1647	2812
1	1668	2813
1	1678	2814
1	1686	2815
1	1686	2816
1	1680	2817
1	1665	2818
1	1650	2819
1	1633	2820
1	1611	2821
1	1593	2822
1	1570	2823
1	1551	2824
1	1530	2825
1	1517	2826
1	1517	2827
1	1534	2828
1	1561	2829
1	1598	2830
1	1636	2831
1	1671	2832
1	1700	2833
1	1721	2834
1	1728	2835
1	1718	2836
1	1695	2837
1	1662	2838
1	1634	2839
1	1607	2840
1	1571	2841
1	1531	2842
1	1503	2843
1	1464	2844
1	1437	2845
1	1437	2846
1	1456	2847
1	1495	2848
1	1545	2849
1	1607	2850
1	1669	2851
1	1724	2852
1	1755	2853
1	1778	2854
1	1791	2855
1	1791	2856
1	1777	2857
1	1754	2858
1	1725	2859
1	1693	2860
1	1656	2861
1	1623	2862
1	1593	2863
1	1571	2864
1	1554	2865
1	1551	2866
1	1555	2867
1	1557	2868
1	1571	2869
1	1586	2870
1	1611	2871
1	1643	2872
1	1682	2873
1	1713	2874
1	1739	2875
1	1756	2876
1	1764	2877
1	1758	2878
1	1747	2879
1	1781	2900
1	1773	2901
1	1760	2902
1	1751	2903
1	1731	2904
1	1712	2905
1	1699	2906
1	1689	2907
1	1688	2908
1	1691	2909
1	1696	2910
1	1705	2911
1	1716	2912
1	1731	2913
1	1750	2914
1	1765	2915
1	1777	2916
1	1782	2917
1	1787	2918
1	1782	2919
1	1723	2880
1	1688	2881
1	1652	2882
1	1610	2883
1	1579	2884
1	1555	2885
1	1544	2886
1	1555	2887
1	1565	2888
1	1581	2889
1	1599	2890
1	1612	2891
1	1629	2892
1	1647	2893
1	1670	2894
1	1697	2895
1	1731	2896
1	1751	2897
1	1768	2898
1	1780	2899
1	1767	2920
1	1751	2921
1	1728	2922
1	1703	2923
1	1683	2924
1	1669	2925
1	1665	2926
1	1672	2927
1	1685	2928
1	1701	2929
1	1730	2930
1	1767	2931
1	1825	2932
1	1869	2933
1	1912	2934
1	1936	2935
1	1948	2936
1	1950	2937
1	1944	2938
1	1923	2939
1	1895	2940
1	1869	2941
1	1849	2942
1	1822	2943
1	1791	2944
1	1769	2945
1	1764	2946
1	1774	2947
1	1795	2948
1	1824	2949
1	1851	2950
1	1877	2951
1	1895	2952
1	1898	2953
1	1895	2954
1	1885	2955
1	1870	2956
1	1859	2957
1	1843	2958
1	1830	2959
1	1817	2960
1	1798	2961
1	1791	2962
1	1791	2963
1	1796	2964
1	1811	2965
1	1823	2966
1	1844	2967
1	1870	2968
1	1904	2969
1	1931	2970
1	1955	2971
1	1978	2972
1	1996	2973
1	2015	2974
1	2026	2975
1	2026	2976
1	2021	2977
1	1999	2978
1	1970	2979
1	1940	2980
1	1905	2981
1	1869	2982
1	1842	2983
1	1817	2984
1	1800	2985
1	1803	2986
1	1824	2987
1	1844	2988
1	1878	2989
1	1917	2990
1	1958	2991
1	2002	2992
1	2034	2993
1	2052	2994
1	2055	2995
1	2048	2996
1	2030	2997
1	1998	2998
1	1961	2999
1	1917	3000
1	1869	3001
1	1825	3002
1	1773	3003
1	1728	3004
1	1693	3005
1	1665	3006
1	1643	3007
1	1634	3008
1	1633	3009
1	1631	3010
1	1636	3011
1	1651	3012
1	1674	3013
1	1701	3014
1	1734	3015
1	1762	3016
1	1780	3017
1	1785	3018
1	1783	3019
1	1773	3020
1	1759	3021
1	1743	3022
1	1734	3023
1	1712	3024
1	1697	3025
1	1679	3026
1	1658	3027
1	1631	3028
1	1607	3029
1	1602	3030
1	1607	3031
1	1620	3032
1	1637	3033
1	1654	3034
1	1671	3035
1	1686	3036
1	1699	3037
1	1703	3038
1	1698	3039
1	1682	3040
1	1664	3041
1	1633	3042
1	1596	3043
1	1556	3044
1	1518	3045
1	1482	3046
1	1456	3047
1	1446	3048
1	1450	3049
1	1466	3050
1	1492	3051
1	1529	3052
1	1571	3053
1	1607	3054
1	1645	3055
1	1682	3056
1	1703	3057
1	1720	3058
1	1725	3059
1	1724	3060
1	1715	3061
1	1706	3062
1	1684	3063
1	1669	3064
1	1648	3065
1	1623	3066
1	1596	3067
1	1574	3068
1	1546	3069
1	1526	3070
1	1515	3071
1	1521	3072
1	1542	3073
1	1563	3074
1	1586	3075
1	1610	3076
1	1633	3077
1	1635	3078
1	1636	3079
1	1626	3080
1	1602	3081
1	1581	3082
1	1556	3083
1	1542	3084
1	1524	3085
1	1508	3086
1	1503	3087
1	1510	3088
1	1529	3089
1	1548	3090
1	1576	3091
1	1606	3092
1	1634	3093
1	1667	3094
1	1691	3095
1	1707	3096
1	1717	3097
1	1716	3098
1	1705	3099
1	1682	3100
1	1641	3101
1	1599	3102
1	1559	3103
1	1529	3104
1	1508	3105
1	1500	3106
1	1500	3107
1	1506	3108
1	1529	3109
1	1562	3110
1	1602	3111
1	1639	3112
1	1681	3113
1	1710	3114
1	1728	3115
1	1737	3116
1	1729	3117
1	1716	3118
1	1697	3119
1	1672	3120
1	1648	3121
1	1626	3122
1	1603	3123
1	1591	3124
1	1584	3125
1	1581	3126
1	1580	3127
1	1587	3128
1	1602	3129
1	1629	3130
1	1665	3131
1	1706	3132
1	1742	3133
1	1773	3134
1	1791	3135
1	1795	3136
1	1787	3137
1	1760	3138
1	1730	3139
1	1697	3140
1	1661	3141
1	1631	3142
1	1607	3143
1	1572	3144
1	1545	3145
1	1531	3146
1	1526	3147
1	1530	3148
1	1548	3149
1	1572	3150
1	1607	3151
1	1649	3152
1	1685	3153
1	1718	3154
1	1747	3155
1	1769	3156
1	1788	3157
1	1800	3158
1	1795	3159
1	1782	3160
1	1749	3161
1	1708	3162
1	1660	3163
1	1608	3164
1	1564	3165
1	1531	3166
1	1512	3167
1	1495	3168
1	1498	3169
1	1508	3170
1	1531	3171
1	1561	3172
1	1599	3173
1	1634	3174
1	1665	3175
1	1704	3176
1	1742	3177
1	1769	3178
1	1785	3179
1	1839	3200
1	1824	3201
1	1791	3202
1	1754	3203
1	1710	3204
1	1660	3205
1	1628	3206
1	1602	3207
1	1582	3208
1	1574	3209
1	1572	3210
1	1581	3211
1	1605	3212
1	1631	3213
1	1664	3214
1	1701	3215
1	1737	3216
1	1764	3217
1	1791	3218
1	1793	3219
1	1783	3180
1	1769	3181
1	1746	3182
1	1710	3183
1	1677	3184
1	1643	3185
1	1616	3186
1	1599	3187
1	1586	3188
1	1592	3189
1	1605	3190
1	1626	3191
1	1651	3192
1	1679	3193
1	1710	3194
1	1741	3195
1	1773	3196
1	1803	3197
1	1822	3198
1	1838	3199
1	1791	3220
1	1778	3221
1	1751	3222
1	1712	3223
1	1661	3224
1	1613	3225
1	1581	3226
1	1569	3227
1	1568	3228
1	1586	3229
1	1616	3230
1	1652	3231
1	1700	3232
1	1744	3233
1	1783	3234
1	1816	3235
1	1831	3236
1	1832	3237
1	1817	3238
1	1787	3239
1	1738	3240
1	1688	3241
1	1639	3242
1	1597	3243
1	1566	3244
1	1544	3245
1	1541	3246
1	1547	3247
1	1566	3248
1	1594	3249
1	1626	3250
1	1665	3251
1	1698	3252
1	1733	3253
1	1764	3254
1	1794	3255
1	1821	3256
1	1838	3257
1	1839	3258
1	1834	3259
1	1826	3260
1	1817	3261
1	1793	3262
1	1776	3263
1	1746	3264
1	1710	3265
1	1669	3266
1	1629	3267
1	1592	3268
1	1569	3269
1	1560	3270
1	1571	3271
1	1593	3272
1	1623	3273
1	1671	3274
1	1721	3275
1	1766	3276
1	1803	3277
1	1818	3278
1	1815	3279
1	1832	3300
1	1813	3301
1	1780	3302
1	1738	3303
1	1692	3304
1	1647	3305
1	1607	3306
1	1592	3307
1	1589	3308
1	1608	3309
1	1647	3310
1	1683	3311
1	1715	3312
1	1751	3313
1	1783	3314
1	1816	3315
1	1842	3316
1	1865	3317
1	1875	3318
1	1879	3319
1	1792	3280
1	1769	3281
1	1741	3282
1	1711	3283
1	1687	3284
1	1670	3285
1	1657	3286
1	1654	3287
1	1659	3288
1	1680	3289
1	1710	3290
1	1738	3291
1	1775	3292
1	1802	3293
1	1823	3294
1	1843	3295
1	1855	3296
1	1858	3297
1	1856	3298
1	1846	3299
1	1867	3320
1	1844	3321
1	1817	3322
1	1766	3323
1	1715	3324
1	1670	3325
1	1641	3326
1	1632	3327
1	1638	3328
1	1660	3329
1	1692	3330
1	1723	3331
1	1751	3332
1	1772	3333
1	1796	3334
1	1819	3335
1	1832	3336
1	1845	3337
1	1846	3338
1	1838	3339
1	1819	3340
1	1782	3341
1	1764	3342
1	1737	3343
1	1711	3344
1	1692	3345
1	1683	3346
1	1671	3347
1	1660	3348
1	1646	3349
1	1645	3350
1	1652	3351
1	1672	3352
1	1698	3353
1	1728	3354
1	1755	3355
1	1787	3356
1	1801	3357
1	1818	3358
1	1824	3359
1	1821	3360
1	1803	3361
1	1786	3362
1	1760	3363
1	1738	3364
1	1724	3365
1	1712	3366
1	1711	3367
1	1726	3368
1	1746	3369
1	1773	3370
1	1803	3371
1	1832	3372
1	1855	3373
1	1869	3374
1	1875	3375
1	1875	3376
1	1869	3377
1	1846	3378
1	1827	3379
1	1796	3380
1	1763	3381
1	1725	3382
1	1674	3383
1	1629	3384
1	1596	3385
1	1581	3386
1	1593	3387
1	1628	3388
1	1677	3389
1	1729	3390
1	1786	3391
1	1844	3392
1	1890	3393
1	1926	3394
1	1953	3395
1	1971	3396
1	1978	3397
1	1973	3398
1	1958	3399
1	1944	3400
1	1917	3401
1	1881	3402
1	1843	3403
1	1796	3404
1	1764	3405
1	1738	3406
1	1726	3407
1	1717	3408
1	1728	3409
1	1739	3410
1	1755	3411
1	1778	3412
1	1817	3413
1	1849	3414
1	1870	3415
1	1885	3416
1	1888	3417
1	1883	3418
1	1871	3419
1	1854	3420
1	1832	3421
1	1799	3422
1	1757	3423
1	1721	3424
1	1688	3425
1	1665	3426
1	1657	3427
1	1662	3428
1	1673	3429
1	1686	3430
1	1703	3431
1	1727	3432
1	1754	3433
1	1782	3434
1	1808	3435
1	1827	3436
1	1841	3437
1	1843	3438
1	1844	3439
1	1812	3460
1	1789	3461
1	1764	3462
1	1739	3463
1	1715	3464
1	1695	3465
1	1679	3466
1	1664	3467
1	1651	3468
1	1643	3469
1	1643	3470
1	1656	3471
1	1680	3472
1	1718	3473
1	1756	3474
1	1787	3475
1	1803	3476
1	1803	3477
1	1791	3478
1	1775	3479
1	1839	3440
1	1818	3441
1	1789	3442
1	1760	3443
1	1721	3444
1	1687	3445
1	1669	3446
1	1660	3447
1	1661	3448
1	1672	3449
1	1688	3450
1	1705	3451
1	1725	3452
1	1743	3453
1	1764	3454
1	1787	3455
1	1803	3456
1	1817	3457
1	1819	3458
1	1817	3459
1	1738	3500
1	1723	3501
1	1705	3502
1	1694	3503
1	1687	3504
1	1687	3505
1	1697	3506
1	1718	3507
1	1754	3508
1	1796	3509
1	1851	3510
1	1903	3511
1	1959	3512
1	2012	3513
1	2073	3514
1	2131	3515
1	2183	3516
1	2233	3517
1	2267	3518
1	2288	3519
1	1755	3500
1	1731	3501
1	1699	3502
1	1661	3503
1	1630	3504
1	1602	3505
1	1578	3506
1	1563	3507
1	1561	3508
1	1576	3509
1	1611	3510
1	1654	3511
1	1704	3512
1	1746	3513
1	1778	3514
1	1795	3515
1	1802	3516
1	1793	3517
1	1773	3518
1	1754	3519
1	1917	3540
1	1818	3541
1	1720	3542
1	1636	3543
1	1569	3544
1	1517	3545
1	1488	3546
1	1479	3547
1	1493	3548
1	1518	3549
1	1557	3550
1	1612	3551
1	1664	3552
1	1725	3553
1	1788	3554
1	1849	3555
1	1896	3556
1	1926	3557
1	1931	3558
1	1924	3559
1	2294	3520
1	2293	3521
1	2288	3522
1	2287	3523
1	2286	3524
1	2288	3525
1	2297	3526
1	2314	3527
1	2333	3528
1	2363	3529
1	2394	3530
1	2424	3531
1	2449	3532
1	2454	3533
1	2434	3534
1	2393	3535
1	2329	3536
1	2245	3537
1	2135	3538
1	2030	3539
1	1908	3560
1	1869	3561
1	1817	3562
1	1760	3563
1	1708	3564
1	1667	3565
1	1644	3566
1	1634	3567
1	1643	3568
1	1660	3569
1	1686	3570
1	1715	3571
1	1752	3572
1	1790	3573
1	1829	3574
1	1854	3575
1	1869	3576
1	1887	3577
1	1895	3578
1	1887	3579
1	1866	3580
1	1837	3581
1	1791	3582
1	1752	3583
1	1711	3584
1	1673	3585
1	1647	3586
1	1643	3587
1	1657	3588
1	1688	3589
1	1735	3590
1	1777	3591
1	1831	3592
1	1867	3593
1	1895	3594
1	1917	3595
1	1926	3596
1	1926	3597
1	1920	3598
1	1908	3599
1	1873	3600
1	1844	3601
1	1815	3602
1	1780	3603
1	1751	3604
1	1724	3605
1	1706	3606
1	1700	3607
1	1714	3608
1	1738	3609
1	1773	3610
1	1817	3611
1	1859	3612
1	1900	3613
1	1932	3614
1	1950	3615
1	1960	3616
1	1953	3617
1	1931	3618
1	1907	3619
1	1880	3620
1	1849	3621
1	1815	3622
1	1789	3623
1	1763	3624
1	1748	3625
1	1744	3626
1	1751	3627
1	1764	3628
1	1785	3629
1	1803	3630
1	1827	3631
1	1849	3632
1	1862	3633
1	1873	3634
1	1887	3635
1	1895	3636
1	1908	3637
1	1904	3638
1	1895	3639
1	1873	3640
1	1841	3641
1	1817	3642
1	1787	3643
1	1764	3644
1	1753	3645
1	1744	3646
1	1741	3647
1	1749	3648
1	1760	3649
1	1775	3650
1	1796	3651
1	1827	3652
1	1856	3653
1	1881	3654
1	1908	3655
1	1936	3656
1	1949	3657
1	1953	3658
1	1947	3659
1	1923	3660
1	1895	3661
1	1869	3662
1	1832	3663
1	1811	3664
1	1789	3665
1	1776	3666
1	1769	3667
1	1778	3668
1	1791	3669
1	1824	3670
1	1865	3671
1	1909	3672
1	1949	3673
1	1984	3674
1	2000	3675
1	2003	3676
1	2001	3677
1	1992	3678
1	1983	3679
1	1967	3680
1	1948	3681
1	1926	3682
1	1897	3683
1	1867	3684
1	1836	3685
1	1815	3686
1	1800	3687
1	1802	3688
1	1814	3689
1	1839	3690
1	1869	3691
1	1902	3692
1	1926	3693
1	1950	3694
1	1974	3695
1	1990	3696
1	2008	3697
1	2010	3698
1	2002	3699
1	1988	3700
1	1965	3701
1	1945	3702
1	1922	3703
1	1899	3704
1	1875	3705
1	1856	3706
1	1843	3707
1	1829	3708
1	1827	3709
1	1841	3710
1	1868	3711
1	1897	3712
1	1939	3713
1	1965	3714
1	1993	3715
1	2012	3716
1	2026	3717
1	2034	3718
1	2029	3719
1	2016	3720
1	1998	3721
1	1976	3722
1	1956	3723
1	1945	3724
1	1935	3725
1	1931	3726
1	1931	3727
1	1944	3728
1	1955	3729
1	1976	3730
1	2000	3731
1	2026	3732
1	2048	3733
1	2066	3734
1	2079	3735
1	2095	3736
1	2102	3737
1	2091	3738
1	2079	3739
1	2063	3740
1	2051	3741
1	2034	3742
1	2028	3743
1	2019	3744
1	2005	3745
1	2009	3746
1	2013	3747
1	2022	3748
1	2034	3749
1	2056	3750
1	2078	3751
1	2101	3752
1	2112	3753
1	2128	3754
1	2137	3755
1	2139	3756
1	2131	3757
1	2111	3758
1	2079	3759
1	2050	3760
1	2001	3761
1	1952	3762
1	1904	3763
1	1863	3764
1	1843	3765
1	1843	3766
1	1861	3767
1	1883	3768
1	1914	3769
1	1949	3770
1	1985	3771
1	2015	3772
1	2052	3773
1	2074	3774
1	2088	3775
1	2097	3776
1	2095	3777
1	2079	3778
1	2052	3779
1	1755	3800
1	1711	3801
1	1665	3802
1	1636	3803
1	1608	3804
1	1595	3805
1	1599	3806
1	1616	3807
1	1647	3808
1	1682	3809
1	1716	3810
1	1748	3811
1	1775	3812
1	1791	3813
1	1811	3814
1	1823	3815
1	1827	3816
1	1817	3817
1	1794	3818
1	1755	3819
1	2015	3780
1	1973	3781
1	1919	3782
1	1859	3783
1	1813	3784
1	1777	3785
1	1757	3786
1	1761	3787
1	1776	3788
1	1803	3789
1	1842	3790
1	1870	3791
1	1891	3792
1	1899	3793
1	1901	3794
1	1899	3795
1	1888	3796
1	1867	3797
1	1834	3798
1	1795	3799
1	1710	3820
1	1659	3821
1	1615	3822
1	1581	3823
1	1555	3824
1	1542	3825
1	1538	3826
1	1544	3827
1	1553	3828
1	1571	3829
1	1595	3830
1	1624	3831
1	1656	3832
1	1679	3833
1	1698	3834
1	1716	3835
1	1729	3836
1	1731	3837
1	1727	3838
1	1711	3839
1	1674	3840
1	1637	3841
1	1593	3842
1	1548	3843
1	1512	3844
1	1490	3845
1	1491	3846
1	1508	3847
1	1538	3848
1	1569	3849
1	1600	3850
1	1623	3851
1	1647	3852
1	1665	3853
1	1681	3854
1	1690	3855
1	1697	3856
1	1702	3857
1	1698	3858
1	1688	3859
1	1641	3880
1	1622	3881
1	1608	3882
1	1595	3883
1	1583	3884
1	1578	3885
1	1574	3886
1	1575	3887
1	1573	3888
1	1577	3889
1	1584	3890
1	1598	3891
1	1631	3892
1	1663	3893
1	1693	3894
1	1716	3895
1	1733	3896
1	1738	3897
1	1730	3898
1	1715	3899
1	1679	3860
1	1665	3861
1	1656	3862
1	1646	3863
1	1629	3864
1	1611	3865
1	1595	3866
1	1577	3867
1	1561	3868
1	1557	3869
1	1567	3870
1	1590	3871
1	1620	3872
1	1646	3873
1	1667	3874
1	1683	3875
1	1691	3876
1	1695	3877
1	1680	3878
1	1660	3879
1	1692	3900
1	1660	3901
1	1633	3902
1	1602	3903
1	1579	3904
1	1557	3905
1	1545	3906
1	1536	3907
1	1541	3908
1	1548	3909
1	1562	3910
1	1584	3911
1	1612	3912
1	1644	3913
1	1674	3914
1	1701	3915
1	1721	3916
1	1730	3917
1	1716	3918
1	1701	3919
1	1672	3920
1	1632	3921
1	1592	3922
1	1562	3923
1	1539	3924
1	1530	3925
1	1536	3926
1	1557	3927
1	1595	3928
1	1638	3929
1	1682	3930
1	1724	3931
1	1760	3932
1	1782	3933
1	1803	3934
1	1817	3935
1	1813	3936
1	1801	3937
1	1765	3938
1	1726	3939
1	1680	3940
1	1618	3941
1	1586	3942
1	1548	3943
1	1520	3944
1	1503	3945
1	1503	3946
1	1510	3947
1	1530	3948
1	1563	3949
1	1597	3950
1	1634	3951
1	1670	3952
1	1703	3953
1	1726	3954
1	1744	3955
1	1752	3956
1	1756	3957
1	1743	3958
1	1718	3959
1	1689	3960
1	1661	3961
1	1636	3962
1	1611	3963
1	1594	3964
1	1579	3965
1	1567	3966
1	1562	3967
1	1571	3968
1	1581	3969
1	1597	3970
1	1623	3971
1	1652	3972
1	1690	3973
1	1726	3974
1	1759	3975
1	1786	3976
1	1796	3977
1	1795	3978
1	1791	3979
1	1778	3980
1	1760	3981
1	1751	3982
1	1739	3983
1	1734	3984
1	1726	3985
1	1721	3986
1	1723	3987
1	1726	3988
1	1731	3989
1	1737	3990
1	1744	3991
1	1760	3992
1	1769	3993
1	1785	3994
1	1791	3995
1	1792	3996
1	1790	3997
1	1769	3998
1	1746	3999
1	1724	4000
1	1690	4001
1	1675	4002
1	1660	4003
1	1654	4004
1	1654	4005
1	1654	4006
1	1660	4006
1	1662	4008
1	1681	4009
1	1701	4010
1	1724	4011
1	1747	4012
1	1779	4013
1	1803	4014
1	1818	4014
1	1818	4016
1	1799	4017
1	1770	4018
1	1738	4019
1	1701	4020
1	1659	4021
1	1609	4022
1	1559	4022
1	1520	4024
1	1494	4025
1	1482	4026
1	1489	4027
1	1513	4028
1	1542	4029
1	1581	4030
1	1633	4030
1	1686	4032
1	1742	4033
1	1791	4034
1	1829	4035
1	1849	4036
1	1854	4037
1	1844	4038
1	1830	4038
1	1808	4040
1	1779	4041
1	1762	4042
1	1751	4043
1	1730	4044
1	1712	4045
1	1708	4046
1	1705	4046
1	1710	4048
1	1718	4049
1	1735	4050
1	1757	4051
1	1787	4052
1	1809	4053
1	1832	4054
1	1848	4054
1	1856	4056
1	1856	4057
1	1845	4058
1	1826	4059
1	1796	4060
1	1760	4061
1	1716	4062
1	1678	4062
1	1639	4064
1	1607	4065
1	1585	4066
1	1574	4067
1	1567	4068
1	1577	4069
1	1594	4070
1	1631	4070
1	1675	4072
1	1733	4073
1	1785	4074
1	1827	4075
1	1849	4076
1	1854	4077
1	1843	4078
1	1821	4078
1	1794	4080
1	1770	4081
1	1751	4082
1	1728	4083
1	1712	4084
1	1697	4085
1	1686	4086
1	1686	4086
1	1695	4088
1	1711	4089
1	1726	4090
1	1741	4091
1	1752	4092
1	1763	4093
1	1764	4094
1	1755	4094
1	1749	4096
1	1733	4097
1	1699	4098
1	1674	4099
1	1651	4100
1	1634	4101
1	1634	4102
1	1629	4103
1	1633	4104
1	1638	4105
1	1646	4106
1	1652	4107
1	1660	4108
1	1670	4109
1	1685	4110
1	1701	4111
1	1724	4112
1	1738	4113
1	1764	4114
1	1791	4115
1	1817	4116
1	1835	4117
1	1836	4118
1	1823	4119
1	1800	4120
1	1777	4121
1	1751	4122
1	1726	4123
1	1702	4124
1	1683	4125
1	1670	4126
1	1671	4127
1	1680	4128
1	1697	4129
1	1715	4130
1	1738	4131
1	1772	4132
1	1796	4133
1	1817	4134
1	1826	4135
1	1826	4136
1	1817	4137
1	1791	4138
1	1770	4139
1	1738	4140
1	1712	4141
1	1683	4142
1	1659	4143
1	1641	4144
1	1625	4145
1	1610	4146
1	1602	4147
1	1593	4148
1	1595	4149
1	1607	4150
1	1634	4151
1	1667	4152
1	1699	4153
1	1731	4154
1	1764	4155
1	1800	4156
1	1826	4157
1	1836	4158
1	1839	4159
1	1830	4160
1	1809	4161
1	1764	4162
1	1723	4163
1	1665	4164
1	1619	4165
1	1580	4166
1	1555	4167
1	1555	4168
1	1571	4169
1	1599	4170
1	1635	4171
1	1674	4172
1	1705	4173
1	1733	4174
1	1756	4175
1	1774	4176
1	1783	4177
1	1773	4178
1	1764	4179
1	1750	4180
1	1734	4181
1	1721	4182
1	1710	4183
1	1697	4184
1	1686	4185
1	1679	4186
1	1674	4187
1	1672	4188
1	1684	4189
1	1701	4190
1	1724	4191
1	1754	4192
1	1780	4193
1	1811	4194
1	1833	4195
1	1851	4196
1	1855	4197
1	1858	4198
1	1860	4199
1	1855	4200
1	1843	4201
1	1825	4202
1	1796	4203
1	1773	4204
1	1749	4205
1	1723	4206
1	1704	4207
1	1695	4208
1	1684	4209
1	1677	4210
1	1679	4211
1	1688	4212
1	1708	4213
1	1725	4214
1	1750	4215
1	1772	4216
1	1791	4217
1	1795	4218
1	1791	4219
1	1783	4220
1	1773	4221
1	1764	4222
1	1764	4223
1	1754	4224
1	1750	4225
1	1746	4226
1	1737	4227
1	1728	4228
1	1715	4229
1	1706	4230
1	1701	4231
1	1704	4232
1	1701	4233
1	1706	4234
1	1713	4235
1	1725	4236
1	1738	4237
1	1749	4238
1	1756	4239
1	1764	4240
1	1764	4241
1	1757	4242
1	1751	4243
1	1743	4244
1	1735	4245
1	1729	4246
1	1729	4247
1	1740	4248
1	1759	4249
1	1782	4250
1	1808	4251
1	1841	4252
1	1856	4253
1	1869	4254
1	1873	4255
1	1871	4256
1	1869	4257
1	1863	4258
1	1852	4259
1	1832	4260
1	1809	4261
1	1770	4262
1	1736	4263
1	1704	4264
1	1681	4265
1	1660	4266
1	1651	4267
1	1657	4268
1	1671	4269
1	1699	4270
1	1727	4271
1	1760	4272
1	1786	4273
1	1817	4274
1	1839	4275
1	1845	4276
1	1843	4277
1	1817	4278
1	1785	4279
1	1743	4280
1	1699	4281
1	1659	4282
1	1629	4283
1	1597	4284
1	1573	4285
1	1555	4286
1	1555	4287
1	1574	4288
1	1605	4289
1	1641	4290
1	1680	4291
1	1718	4292
1	1746	4293
1	1782	4294
1	1818	4295
1	1838	4296
1	1847	4297
1	1839	4298
1	1817	4299
1	1790	4300
1	1764	4301
1	1740	4302
1	1721	4303
1	1705	4304
1	1694	4305
1	1687	4306
1	1692	4307
1	1706	4308
1	1734	4309
1	1766	4310
1	1803	4311
1	1847	4312
1	1879	4313
1	1896	4314
1	1913	4315
1	1916	4316
1	1904	4317
1	1880	4318
1	1852	4319
1	1823	4320
1	1795	4321
1	1777	4322
1	1753	4323
1	1742	4324
1	1731	4325
1	1723	4326
1	1723	4327
1	1719	4328
1	1726	4329
1	1737	4330
1	1746	4331
1	1763	4332
1	1778	4333
1	1798	4334
1	1818	4335
1	1828	4336
1	1832	4337
1	1820	4338
1	1802	4339
1	2210	4360
1	2194	4361
1	2184	4362
1	2197	4363
1	2219	4364
1	2260	4365
1	2300	4366
1	2342	4367
1	2372	4368
1	2397	4369
1	2419	4370
1	2426	4371
1	2427	4372
1	2420	4373
1	2392	4374
1	2344	4375
1	2285	4376
1	2206	4377
1	2121	4378
1	2035	4379
1	1948	4380
1	1860	4381
1	1777	4382
1	1702	4383
1	1651	4384
1	1618	4385
1	1595	4386
1	1596	4387
1	1613	4388
1	1647	4389
1	1697	4390
1	1749	4391
1	1802	4392
1	1856	4393
1	1896	4394
1	1932	4395
1	1950	4396
1	1953	4397
1	1949	4398
1	1931	4399
1	1901	4400
1	1863	4401
1	1840	4402
1	1812	4403
1	1790	4404
1	1775	4405
1	1774	4406
1	1781	4407
1	1793	4408
1	1817	4409
1	1845	4410
1	1877	4411
1	1908	4412
1	1926	4413
1	1948	4414
1	1957	4415
1	1951	4416
1	1940	4417
1	1926	4418
1	1908	4419
1	1774	4340
1	1738	4341
1	1698	4342
1	1670	4343
1	1639	4344
1	1622	4345
1	1610	4346
1	1625	4347
1	1648	4348
1	1692	4349
1	1751	4350
1	1827	4351
1	1907	4352
1	1981	4353
1	2052	4354
1	2117	4355
1	2167	4356
1	2201	4357
1	2228	4358
1	2220	4359
1	1895	4440
1	1872	4441
1	1856	4442
1	1843	4443
1	1833	4444
1	1816	4445
1	1798	4446
1	1796	4447
1	1814	4448
1	1833	4449
1	1869	4450
1	1913	4451
1	1962	4452
1	2000	4453
1	2026	4454
1	2042	4455
1	2043	4456
1	2035	4457
1	2016	4458
1	1998	4459
1	1888	4420
1	1869	4421
1	1847	4422
1	1823	4423
1	1796	4424
1	1778	4425
1	1773	4426
1	1777	4427
1	1786	4428
1	1809	4429
1	1837	4430
1	1867	4431
1	1901	4432
1	1927	4433
1	1950	4434
1	1967	4435
1	1968	4436
1	1961	4437
1	1944	4438
1	1922	4439
1	1974	4460
1	1949	4461
1	1937	4462
1	1935	4463
1	1934	4464
1	1940	4465
1	1951	4466
1	1967	4467
1	1990	4468
1	2013	4469
1	2040	4470
1	2063	4471
1	2079	4472
1	2089	4473
1	2097	4474
1	2097	4475
1	2088	4476
1	2079	4477
1	2056	4478
1	2036	4479
1	2015	4480
1	1995	4481
1	1976	4482
1	1965	4483
1	1961	4484
1	1960	4485
1	1966	4486
1	1980	4487
1	1989	4488
1	2007	4489
1	2024	4490
1	2039	4491
1	2063	4492
1	2071	4493
1	2075	4494
1	2067	4495
1	2055	4496
1	2040	4497
1	2019	4498
1	1999	4499
1	1974	4500
1	1952	4501
1	1936	4502
1	1917	4503
1	1912	4504
1	1913	4505
1	1922	4506
1	1949	4507
1	1976	4508
1	2011	4509
1	2047	4510
1	2079	4511
1	2111	4512
1	2131	4513
1	2150	4514
1	2168	4515
1	2183	4516
1	2199	4517
1	2201	4518
1	2197	4519
1	2183	4520
1	2157	4521
1	2133	4522
1	2119	4523
1	2105	4524
1	2095	4525
1	2094	4526
1	2096	4527
1	2102	4528
1	2110	4529
1	2120	4530
1	2135	4531
1	2156	4532
1	2165	4533
1	2174	4534
1	2183	4535
1	2188	4536
1	2198	4537
1	2198	4538
1	2198	4539
1	2206	4560
1	2180	4561
1	2155	4562
1	2124	4563
1	2101	4564
1	2079	4565
1	2065	4566
1	2063	4567
1	2087	4568
1	2118	4569
1	2162	4570
1	2215	4571
1	2274	4572
1	2317	4573
1	2362	4574
1	2395	4575
1	2419	4576
1	2429	4577
1	2417	4578
1	2398	4579
1	2192	4540
1	2181	4541
1	2157	4542
1	2152	4543
1	2150	4544
1	2148	4545
1	2145	4546
1	2146	4547
1	2156	4548
1	2158	4549
1	2170	4550
1	2183	4551
1	2201	4552
1	2215	4553
1	2231	4554
1	2242	4555
1	2258	4556
1	2263	4557
1	2255	4558
1	2236	4559
1	2375	4580
1	2345	4581
1	2322	4582
1	2288	4583
1	2262	4584
1	2237	4585
1	2222	4586
1	2222	4587
1	2241	4588
1	2264	4589
1	2299	4590
1	2336	4591
1	2367	4592
1	2385	4593
1	2403	4594
1	2419	4595
1	2422	4596
1	2428	4597
1	2418	4598
1	2401	4599
1	2381	4600
1	2352	4601
1	2316	4602
1	2281	4603
1	2251	4604
1	2234	4605
1	2219	4606
1	2222	4607
1	2219	4608
1	2231	4609
1	2240	4610
1	2260	4611
1	2289	4612
1	2312	4613
1	2326	4614
1	2331	4615
1	2327	4616
1	2323	4617
1	2311	4618
1	2296	4619
1	2285	4620
1	2268	4621
1	2249	4622
1	2210	4623
1	2184	4624
1	2158	4625
1	2141	4626
1	2131	4627
1	2133	4628
1	2142	4629
1	2159	4630
1	2183	4631
1	2210	4632
1	2236	4633
1	2251	4634
1	2262	4635
1	2262	4636
1	2257	4637
1	2237	4638
1	2212	4639
1	2182	4640
1	2145	4641
1	2106	4642
1	2075	4643
1	2030	4644
1	2000	4645
1	1968	4646
1	1945	4647
1	1939	4648
1	1953	4649
1	1986	4650
1	2024	4651
1	2061	4652
1	2088	4653
1	2117	4654
1	2138	4655
1	2147	4656
1	2144	4657
1	2127	4658
1	2103	4659
1	2057	4680
1	2027	4681
1	2001	4682
1	1971	4683
1	1947	4684
1	1922	4685
1	1912	4686
1	1921	4687
1	1935	4688
1	1953	4689
1	1980	4690
1	2016	4691
1	2054	4692
1	2087	4693
1	2107	4694
1	2127	4695
1	2133	4696
1	2131	4697
1	2110	4698
1	2083	4699
1	2052	4700
1	2013	4701
1	1981	4702
1	1951	4703
1	1932	4704
1	1924	4705
1	1934	4706
1	1948	4707
1	1965	4708
1	1988	4709
1	2017	4710
1	2058	4711
1	2111	4712
1	2159	4713
1	2209	4714
1	2242	4715
1	2250	4716
1	2238	4717
1	2212	4718
1	2166	4719
1	2070	4660
1	2041	4661
1	2016	4662
1	2000	4663
1	1992	4664
1	2000	4665
1	2025	4666
1	2052	4667
1	2079	4668
1	2117	4669
1	2147	4670
1	2170	4671
1	2183	4672
1	2201	4673
1	2208	4674
1	2206	4675
1	2188	4676
1	2159	4677
1	2129	4678
1	2093	4679
1	2107	4720
1	2045	4721
1	1989	4722
1	1947	4723
1	1916	4724
1	1900	4725
1	1911	4726
1	1933	4727
1	1961	4728
1	2005	4729
1	2050	4730
1	2089	4731
1	2133	4732
1	2168	4733
1	2189	4734
1	2204	4735
1	2202	4736
1	2191	4737
1	2165	4738
1	2135	4739
1	2097	4740
1	2065	4741
1	2029	4742
1	2004	4743
1	1983	4744
1	1965	4745
1	1956	4746
1	1952	4747
1	1955	4748
1	1971	4749
1	1987	4750
1	2001	4751
1	2021	4752
1	2030	4753
1	2052	4754
1	2078	4755
1	2105	4756
1	2131	4757
1	2137	4758
1	2135	4759
1	2068	4780
1	2057	4781
1	2052	4782
1	2047	4783
1	2051	4784
1	2058	4785
1	2078	4786
1	2097	4787
1	2109	4788
1	2124	4789
1	2132	4790
1	2143	4791
1	2163	4792
1	2173	4793
1	2183	4794
1	2191	4795
1	2192	4796
1	2183	4797
1	2161	4798
1	2138	4799
1	2107	4800
1	2082	4801
1	2056	4802
1	2034	4803
1	2007	4804
1	1982	4805
1	1965	4806
1	1965	4807
1	1976	4808
1	2007	4809
1	2052	4810
1	2105	4811
1	2156	4812
1	2199	4813
1	2238	4814
1	2264	4815
1	2280	4816
1	2282	4817
1	2257	4818
1	2219	4819
1	2130	4760
1	2114	4761
1	2101	4762
1	2096	4763
1	2083	4764
1	2075	4765
1	2063	4766
1	2057	4767
1	2065	4768
1	2079	4769
1	2096	4770
1	2111	4771
1	2129	4772
1	2131	4773
1	2133	4774
1	2129	4775
1	2112	4776
1	2105	4777
1	2094	4778
1	2083	4779
1	2179	4820
1	2137	4821
1	2101	4822
1	2070	4823
1	2045	4824
1	2027	4825
1	2026	4826
1	2039	4827
1	2061	4828
1	2084	4829
1	2103	4830
1	2119	4831
1	2133	4832
1	2137	4833
1	2142	4834
1	2145	4835
1	2149	4836
1	2161	4837
1	2163	4838
1	2162	4839
1	2153	4840
1	2138	4841
1	2125	4842
1	2104	4843
1	2088	4844
1	2073	4845
1	2061	4846
1	2058	4847
1	2066	4848
1	2076	4849
1	2101	4850
1	2131	4851
1	2165	4852
1	2188	4853
1	2208	4854
1	2217	4855
1	2210	4856
1	2205	4857
1	2183	4858
1	2165	4859
1	2207	4880
1	2179	4881
1	2149	4882
1	2113	4883
1	2081	4884
1	2064	4885
1	2052	4886
1	2053	4887
1	2067	4888
1	2091	4889
1	2114	4890
1	2139	4891
1	2157	4892
1	2160	4893
1	2160	4894
1	2155	4895
1	2139	4896
1	2129	4897
1	2097	4898
1	2058	4899
1	2143	4860
1	2115	4861
1	2080	4862
1	2039	4863
1	2004	4864
1	1974	4865
1	1939	4866
1	1909	4867
1	1898	4868
1	1900	4869
1	1927	4870
1	1969	4871
1	2015	4872
1	2064	4873
1	2114	4874
1	2162	4875
1	2202	4876
1	2236	4877
1	2236	4878
1	2230	4879
1	2017	4900
1	1974	4901
1	1935	4902
1	1913	4903
1	1911	4904
1	1926	4905
1	1958	4906
1	2000	4907
1	2037	4908
1	2082	4909
1	2127	4910
1	2160	4911
1	2197	4912
1	2212	4913
1	2228	4914
1	2237	4915
1	2237	4916
1	2228	4917
1	2209	4918
1	2183	4919
1	2143	4920
1	2105	4921
1	2061	4922
1	2017	4923
1	1987	4924
1	1966	4925
1	1950	4926
1	1952	4927
1	1956	4928
1	1967	4929
1	1985	4930
1	2010	4931
1	2035	4932
1	2062	4933
1	2084	4934
1	2100	4935
1	2102	4936
1	2100	4937
1	2075	4938
1	2055	4939
1	2030	4940
1	2005	4941
1	1985	4942
1	1975	4943
1	1962	4944
1	1957	4945
1	1952	4946
1	1966	4947
1	1974	4948
1	1989	4949
1	2017	4950
1	2051	4951
1	2084	4952
1	2119	4953
1	2143	4954
1	2157	4955
1	2155	4956
1	2145	4957
1	2114	4958
1	2078	4959
1	2006	4980
1	1972	4981
1	1953	4982
1	1949	4983
1	1959	4984
1	1971	4985
1	1985	4986
1	2009	4987
1	2029	4988
1	2061	4989
1	2084	4990
1	2112	4991
1	2137	4992
1	2155	4993
1	2157	4994
1	2150	4995
1	2133	4996
1	2115	4997
1	2082	4998
1	2051	4999
1	2044	4960
1	2001	4961
1	1970	4962
1	1944	4963
1	1926	4964
1	1922	4965
1	1924	4966
1	1933	4967
1	1942	4968
1	1961	4969
1	1992	4970
1	2029	4971
1	2074	4972
1	2113	4973
1	2131	4974
1	2137	4975
1	2126	4976
1	2101	4977
1	2078	4978
1	2045	4979
1	2017	5000
1	1994	5001
1	1989	5002
1	1983	5003
1	1974	5004
1	1974	5005
1	1976	5006
1	1986	5007
1	2000	5008
1	2019	5009
1	2043	5010
1	2070	5011
1	2102	5012
1	2122	5013
1	2143	5014
1	2157	5015
1	2162	5016
1	2158	5017
1	2157	5018
1	2133	5019
1	2140	5040
1	2129	5041
1	2104	5042
1	2075	5043
1	2039	5044
1	2000	5045
1	1974	5046
1	1958	5047
1	1948	5048
1	1945	5049
1	1948	5050
1	1957	5051
1	1975	5052
1	1987	5053
1	1996	5054
1	2000	5055
1	2000	5056
1	1993	5057
1	1967	5058
1	1940	5059
1	2094	5020
1	2043	5021
1	1991	5022
1	1942	5023
1	1895	5024
1	1856	5025
1	1827	5026
1	1803	5027
1	1794	5028
1	1814	5029
1	1843	5030
1	1882	5031
1	1940	5032
1	1991	5033
1	2034	5034
1	2077	5035
1	2108	5036
1	2135	5037
1	2155	5038
1	2157	5039
1	1915	5060
1	1900	5061
1	1898	5062
1	1917	5063
1	1933	5064
1	1949	5065
1	1967	5066
1	1989	5067
1	2014	5068
1	2050	5069
1	2079	5070
1	2109	5071
1	2142	5072
1	2158	5073
1	2170	5074
1	2175	5075
1	2170	5076
1	2162	5077
1	2137	5078
1	2105	5079
1	2067	5080
1	2026	5081
1	1985	5082
1	1948	5083
1	1917	5084
1	1895	5085
1	1881	5086
1	1885	5087
1	1895	5088
1	1918	5089
1	1947	5090
1	1978	5091
1	2021	5092
1	2047	5093
1	2061	5094
1	2066	5095
1	2066	5096
1	2058	5097
1	2041	5098
1	2025	5099
1	1996	5100
1	1954	5101
1	1908	5102
1	1862	5103
1	1823	5104
1	1791	5105
1	1779	5106
1	1792	5107
1	1826	5108
1	1869	5109
1	1924	5110
1	1984	5111
1	2042	5112
1	2092	5113
1	2131	5114
1	2163	5115
1	2180	5116
1	2173	5117
1	2143	5118
1	2105	5119
1	2066	5120
1	2021	5121
1	1972	5122
1	1935	5123
1	1903	5124
1	1879	5125
1	1874	5126
1	1887	5127
1	1909	5128
1	1940	5129
1	1973	5130
1	2010	5131
1	2048	5132
1	2073	5133
1	2096	5134
1	2115	5135
1	2117	5136
1	2118	5137
1	2104	5138
1	2076	5139
1	2030	5140
1	1983	5141
1	1948	5142
1	1913	5143
1	1895	5144
1	1869	5145
1	1852	5146
1	1832	5147
1	1825	5148
1	1828	5149
1	1841	5150
1	1859	5151
1	1885	5152
1	1904	5153
1	1922	5154
1	1927	5155
1	1933	5156
1	1922	5157
1	1910	5158
1	1898	5159
1	1888	5160
1	1885	5161
1	1885	5162
1	1880	5163
1	1881	5164
1	1880	5165
1	1886	5166
1	1895	5167
1	1911	5168
1	1921	5169
1	1932	5170
1	1948	5171
1	1962	5172
1	1963	5173
1	1949	5174
1	1926	5175
1	1895	5176
1	1860	5177
1	1820	5178
1	1785	5179
1	1749	5180
1	1712	5181
1	1688	5182
1	1667	5183
1	1655	5184
1	1656	5185
1	1673	5186
1	1710	5187
1	1756	5188
1	1822	5189
1	1886	5190
1	1949	5191
1	2008	5192
1	2048	5193
1	2070	5194
1	2076	5195
1	2066	5196
1	2045	5197
1	2004	5198
1	1959	5199
1	1909	5200
1	1863	5201
1	1826	5202
1	1790	5203
1	1764	5204
1	1746	5205
1	1738	5206
1	1738	5207
1	1742	5208
1	1765	5209
1	1803	5210
1	1843	5211
1	1881	5212
1	1908	5213
1	1923	5214
1	1923	5215
1	1910	5216
1	1883	5217
1	1845	5218
1	1800	5219
1	1751	5220
1	1700	5221
1	1652	5222
1	1607	5223
1	1587	5224
1	1582	5225
1	1599	5226
1	1638	5227
1	1708	5228
1	1782	5229
1	1872	5230
1	1964	5231
1	2055	5232
1	2135	5233
1	2204	5234
1	2256	5235
1	2288	5236
1	2306	5237
1	2299	5238
1	2287	5239
1	2270	5240
1	2260	5241
1	2253	5242
1	2264	5243
1	2279	5244
1	2304	5245
1	2330	5246
1	2357	5247
1	2384	5248
1	2412	5249
1	2440	5250
1	2458	5251
1	2469	5252
1	2458	5253
1	2441	5254
1	2408	5255
1	2348	5256
1	2273	5257
1	2173	5258
1	2066	5259
1	1854	5300
1	1788	5301
1	1728	5302
1	1668	5303
1	1615	5304
1	1572	5305
1	1546	5306
1	1536	5307
1	1548	5308
1	1575	5309
1	1616	5310
1	1670	5311
1	1728	5312
1	1770	5313
1	1816	5314
1	1842	5315
1	1855	5316
1	1861	5317
1	1868	5318
1	1856	5319
1	1675	5280
1	1646	5281
1	1620	5282
1	1600	5283
1	1593	5284
1	1597	5285
1	1610	5286
1	1641	5287
1	1669	5288
1	1709	5289
1	1752	5290
1	1809	5291
1	1856	5292
1	1904	5293
1	1948	5294
1	1977	5295
1	1991	5296
1	1988	5297
1	1953	5298
1	1907	5299
1	1961	5260
1	1859	5261
1	1765	5262
1	1697	5263
1	1644	5264
1	1607	5265
1	1587	5266
1	1582	5267
1	1590	5268
1	1610	5269
1	1638	5270
1	1665	5271
1	1693	5272
1	1726	5273
1	1746	5274
1	1755	5275
1	1757	5276
1	1751	5277
1	1733	5278
1	1705	5279
1	1836	5320
1	1815	5321
1	1783	5322
1	1755	5323
1	1728	5324
1	1705	5325
1	1688	5326
1	1679	5327
1	1670	5328
1	1673	5329
1	1686	5330
1	1705	5331
1	1742	5332
1	1779	5333
1	1816	5334
1	1828	5335
1	1823	5336
1	1799	5337
1	1767	5338
1	1737	5339
1	1694	5340
1	1652	5341
1	1610	5342
1	1579	5343
1	1556	5344
1	1549	5345
1	1554	5346
1	1569	5347
1	1603	5348
1	1635	5349
1	1684	5350
1	1738	5351
1	1791	5352
1	1843	5353
1	1881	5354
1	1904	5355
1	1909	5356
1	1895	5357
1	1860	5358
1	1817	5359
1	1746	5380
1	1704	5381
1	1670	5382
1	1641	5383
1	1619	5384
1	1606	5385
1	1598	5386
1	1598	5387
1	1602	5388
1	1615	5389
1	1634	5390
1	1648	5391
1	1679	5392
1	1702	5393
1	1729	5394
1	1751	5395
1	1765	5396
1	1775	5397
1	1778	5398
1	1767	5399
1	1764	5360
1	1715	5361
1	1677	5362
1	1647	5363
1	1616	5364
1	1595	5365
1	1582	5366
1	1581	5367
1	1594	5368
1	1621	5369
1	1656	5370
1	1698	5371
1	1744	5372
1	1778	5373
1	1813	5374
1	1832	5375
1	1845	5376
1	1850	5377
1	1830	5378
1	1788	5379
1	1751	5400
1	1726	5401
1	1697	5402
1	1664	5403
1	1643	5404
1	1626	5405
1	1621	5406
1	1635	5407
1	1661	5408
1	1699	5409
1	1736	5410
1	1764	5411
1	1791	5412
1	1817	5413
1	1839	5414
1	1851	5415
1	1854	5416
1	1852	5417
1	1841	5418
1	1821	5419
1	1793	5420
1	1764	5421
1	1734	5422
1	1711	5423
1	1692	5424
1	1683	5425
1	1681	5426
1	1688	5427
1	1705	5428
1	1728	5429
1	1755	5430
1	1788	5431
1	1820	5432
1	1841	5433
1	1858	5434
1	1868	5435
1	1859	5436
1	1845	5437
1	1817	5438
1	1783	5439
1	1751	5440
1	1724	5441
1	1705	5442
1	1685	5443
1	1682	5444
1	1685	5445
1	1693	5446
1	1711	5447
1	1736	5448
1	1760	5449
1	1779	5450
1	1796	5451
1	1818	5452
1	1836	5453
1	1849	5454
1	1868	5455
1	1878	5456
1	1869	5457
1	1851	5458
1	1814	5459
1	1778	5480
1	1742	5481
1	1711	5482
1	1683	5483
1	1667	5484
1	1670	5485
1	1688	5486
1	1714	5487
1	1749	5488
1	1782	5489
1	1818	5490
1	1846	5491
1	1873	5492
1	1888	5493
1	1895	5494
1	1893	5495
1	1882	5496
1	1872	5497
1	1851	5498
1	1818	5499
1	1764	5460
1	1721	5461
1	1683	5462
1	1647	5463
1	1633	5464
1	1631	5465
1	1648	5466
1	1686	5467
1	1739	5468
1	1791	5469
1	1843	5470
1	1882	5471
1	1908	5472
1	1918	5473
1	1919	5474
1	1911	5475
1	1895	5476
1	1869	5477
1	1841	5478
1	1816	5479
1	1779	5500
1	1744	5501
1	1710	5502
1	1679	5503
1	1652	5504
1	1634	5505
1	1618	5506
1	1611	5507
1	1610	5508
1	1625	5509
1	1647	5510
1	1683	5511
1	1720	5512
1	1748	5513
1	1760	5514
1	1755	5515
1	1737	5516
1	1701	5517
1	1660	5518
1	1611	5519
1	1566	5520
1	1517	5521
1	1476	5522
1	1440	5523
1	1425	5524
1	1424	5525
1	1440	5526
1	1476	5527
1	1520	5528
1	1560	5529
1	1597	5530
1	1621	5531
1	1634	5532
1	1634	5533
1	1632	5534
1	1620	5535
1	1602	5536
1	1569	5537
1	1525	5538
1	1481	5539
1	1443	5540
1	1413	5541
1	1376	5542
1	1359	5543
1	1337	5544
1	1327	5545
1	1328	5546
1	1335	5547
1	1346	5548
1	1364	5549
1	1383	5550
1	1413	5551
1	1440	5552
1	1458	5553
1	1479	5554
1	1488	5555
1	1484	5556
1	1474	5557
1	1455	5558
1	1434	5559
1	1417	5560
1	1392	5561
1	1364	5562
1	1341	5563
1	1325	5564
1	1319	5565
1	1319	5566
1	1323	5567
1	1328	5568
1	1345	5569
1	1360	5570
1	1373	5571
1	1393	5572
1	1407	5573
1	1413	5574
1	1415	5575
1	1412	5576
1	1405	5577
1	1399	5578
1	1384	5579
1	1373	5580
1	1362	5581
1	1351	5582
1	1338	5583
1	1332	5584
1	1332	5585
1	1338	5586
1	1357	5587
1	1376	5588
1	1399	5589
1	1420	5590
1	1439	5591
1	1459	5592
1	1473	5593
1	1477	5594
1	1481	5595
1	1476	5596
1	1459	5597
1	1426	5598
1	1373	5599
1	1322	5600
1	1268	5601
1	1227	5602
1	1193	5603
1	1176	5604
1	1179	5605
1	1197	5606
1	1229	5607
1	1269	5608
1	1319	5609
1	1371	5610
1	1420	5611
1	1455	5612
1	1477	5613
1	1494	5614
1	1503	5615
1	1502	5616
1	1485	5617
1	1464	5618
1	1428	5619
1	1396	5620
1	1357	5621
1	1330	5622
1	1309	5623
1	1294	5624
1	1291	5625
1	1290	5626
1	1293	5627
1	1297	5628
1	1311	5629
1	1330	5630
1	1350	5631
1	1375	5632
1	1397	5633
1	1403	5634
1	1413	5635
1	1414	5636
1	1414	5637
1	1409	5638
1	1398	5639
1	1373	5640
1	1351	5641
1	1333	5642
1	1323	5643
1	1319	5644
1	1323	5645
1	1338	5646
1	1367	5647
1	1410	5648
1	1450	5649
1	1493	5650
1	1530	5651
1	1552	5652
1	1557	5653
1	1559	5654
1	1550	5655
1	1526	5656
1	1490	5657
1	1449	5658
1	1407	5659
1	1368	5660
1	1335	5661
1	1309	5662
1	1292	5663
1	1280	5664
1	1279	5665
1	1287	5666
1	1297	5667
1	1310	5668
1	1322	5669
1	1341	5670
1	1359	5671
1	1384	5672
1	1402	5673
1	1416	5674
1	1424	5675
1	1429	5676
1	1438	5677
1	1443	5678
1	1446	5679
1	1403	5700
1	1376	5701
1	1351	5702
1	1327	5703
1	1312	5704
1	1310	5705
1	1319	5706
1	1345	5707
1	1369	5708
1	1394	5709
1	1410	5710
1	1427	5711
1	1449	5712
1	1459	5713
1	1472	5714
1	1479	5715
1	1484	5716
1	1489	5717
1	1484	5718
1	1481	5719
1	1448	5680
1	1439	5681
1	1426	5682
1	1417	5683
1	1405	5684
1	1398	5685
1	1397	5686
1	1400	5687
1	1410	5688
1	1429	5689
1	1452	5690
1	1476	5691
1	1496	5692
1	1504	5693
1	1506	5694
1	1503	5695
1	1494	5696
1	1476	5697
1	1451	5698
1	1427	5699
1	1472	5720
1	1454	5721
1	1441	5722
1	1423	5723
1	1410	5724
1	1409	5725
1	1419	5726
1	1436	5727
1	1456	5728
1	1481	5729
1	1508	5730
1	1536	5731
1	1559	5732
1	1566	5733
1	1566	5734
1	1554	5735
1	1537	5736
1	1525	5737
1	1506	5738
1	1490	5739
1	1463	5740
1	1441	5741
1	1415	5742
1	1369	5743
1	1333	5744
1	1310	5745
1	1295	5746
1	1301	5747
1	1318	5748
1	1346	5749
1	1377	5750
1	1424	5751
1	1462	5752
1	1500	5753
1	1532	5754
1	1562	5755
1	1582	5756
1	1594	5757
1	1587	5758
1	1576	5759
1	1561	5760
1	1546	5761
1	1526	5762
1	1499	5763
1	1476	5764
1	1455	5765
1	1441	5766
1	1438	5767
1	1447	5768
1	1463	5769
1	1492	5770
1	1527	5771
1	1556	5772
1	1585	5773
1	1607	5774
1	1616	5775
1	1609	5776
1	1587	5777
1	1555	5778
1	1515	5779
1	1476	5780
1	1435	5781
1	1397	5782
1	1358	5783
1	1341	5784
1	1332	5785
1	1338	5786
1	1357	5787
1	1394	5788
1	1436	5789
1	1488	5790
1	1538	5791
1	1587	5792
1	1621	5793
1	1644	5794
1	1652	5795
1	1647	5796
1	1634	5797
1	1605	5798
1	1572	5799
1	1539	5800
1	1506	5801
1	1480	5802
1	1458	5803
1	1445	5804
1	1440	5805
1	1450	5806
1	1472	5807
1	1492	5808
1	1520	5809
1	1544	5810
1	1565	5811
1	1581	5812
1	1584	5813
1	1587	5814
1	1583	5815
1	1581	5816
1	1577	5817
1	1575	5818
1	1579	5819
1	1592	5820
1	1605	5821
1	1620	5822
1	1629	5823
1	1636	5824
1	1641	5825
1	1643	5826
1	1638	5827
1	1634	5828
1	1631	5829
1	1628	5830
1	1625	5831
1	1620	5832
1	1613	5833
1	1609	5834
1	1607	5835
1	1600	5836
1	1594	5837
1	1580	5838
1	1572	5839
1	1564	5840
1	1553	5841
1	1540	5842
1	1540	5843
1	1538	5844
1	1535	5845
1	1539	5846
1	1548	5847
1	1559	5848
1	1577	5849
1	1590	5850
1	1606	5851
1	1611	5852
1	1616	5853
1	1620	5854
1	1623	5855
1	1622	5856
1	1616	5857
1	1607	5858
1	1587	5859
1	1573	5860
1	1551	5861
1	1530	5862
1	1517	5863
1	1516	5864
1	1529	5865
1	1549	5866
1	1569	5867
1	1578	5868
1	1581	5869
1	1584	5870
1	1589	5871
1	1595	5872
1	1603	5873
1	1599	5874
1	1597	5875
1	1599	5876
1	1605	5877
1	1610	5878
1	1615	5879
1	1716	5900
1	1688	5901
1	1660	5902
1	1628	5903
1	1597	5904
1	1574	5905
1	1557	5906
1	1556	5907
1	1559	5908
1	1572	5909
1	1587	5910
1	1616	5911
1	1661	5912
1	1702	5913
1	1738	5914
1	1765	5915
1	1777	5916
1	1778	5917
1	1769	5918
1	1744	5919
1	1613	5880
1	1611	5881
1	1610	5882
1	1605	5883
1	1607	5884
1	1616	5885
1	1634	5886
1	1665	5887
1	1698	5888
1	1728	5889
1	1753	5890
1	1776	5891
1	1792	5892
1	1809	5893
1	1816	5894
1	1813	5895
1	1795	5896
1	1779	5897
1	1755	5898
1	1738	5899
1	1719	5920
1	1699	5921
1	1681	5922
1	1665	5923
1	1656	5924
1	1647	5925
1	1647	5926
1	1655	5927
1	1665	5928
1	1691	5929
1	1726	5930
1	1761	5931
1	1793	5932
1	1821	5933
1	1844	5934
1	1856	5935
1	1856	5936
1	1848	5937
1	1827	5938
1	1793	5939
1	1765	5940
1	1744	5941
1	1725	5942
1	1712	5943
1	1700	5944
1	1696	5945
1	1694	5946
1	1706	5947
1	1721	5948
1	1737	5949
1	1760	5950
1	1787	5951
1	1811	5952
1	1830	5953
1	1842	5954
1	1845	5955
1	1848	5956
1	1845	5957
1	1832	5958
1	1818	5959
1	1854	6000
1	1828	6001
1	1813	6002
1	1808	6003
1	1808	6004
1	1813	6005
1	1818	6006
1	1836	6007
1	1852	6008
1	1870	6009
1	1895	6010
1	1917	6011
1	1936	6012
1	1952	6013
1	1966	6014
1	1964	6015
1	1952	6016
1	1926	6017
1	1894	6018
1	1859	6019
1	1931	5980
1	1903	5981
1	1875	5982
1	1856	5983
1	1835	5984
1	1818	5985
1	1803	5986
1	1803	5987
1	1813	5988
1	1824	5989
1	1846	5990
1	1868	5991
1	1894	5992
1	1908	5993
1	1922	5994
1	1928	5995
1	1930	5996
1	1926	5997
1	1907	5998
1	1880	5999
1	1812	5960
1	1796	5961
1	1788	5962
1	1785	5963
1	1770	5964
1	1757	5965
1	1746	5966
1	1747	5967
1	1754	5968
1	1770	5969
1	1792	5970
1	1827	5971
1	1861	5972
1	1890	5973
1	1919	5974
1	1945	5975
1	1959	5976
1	1971	5977
1	1963	5978
1	1950	5979
1	1839	6020
1	1823	6021
1	1815	6022
1	1816	6023
1	1817	6024
1	1827	6025
1	1842	6026
1	1861	6027
1	1887	6028
1	1913	6029
1	1939	6030
1	1958	6031
1	1975	6032
1	1988	6033
1	2000	6034
1	2006	6035
1	2006	6036
1	2005	6037
1	1980	6038
1	1947	6039
1	1895	6040
1	1854	6041
1	1816	6042
1	1771	6043
1	1741	6044
1	1723	6045
1	1715	6046
1	1719	6047
1	1736	6048
1	1766	6049
1	1818	6050
1	1873	6051
1	1932	6052
1	1986	6053
1	2025	6054
1	2064	6055
1	2093	6056
1	2099	6057
1	2088	6058
1	2061	6059
1	2013	6060
1	1961	6061
1	1906	6062
1	1854	6063
1	1812	6064
1	1772	6065
1	1747	6066
1	1740	6067
1	1760	6068
1	1791	6069
1	1832	6070
1	1887	6071
1	1940	6072
1	1986	6073
1	2024	6074
1	2042	6075
1	2044	6076
1	2030	6077
1	2000	6078
1	1965	6079
1	1930	6080
1	1893	6081
1	1859	6082
1	1822	6083
1	1791	6084
1	1781	6085
1	1780	6086
1	1794	6087
1	1819	6088
1	1857	6089
1	1901	6090
1	1953	6091
1	2007	6092
1	2057	6093
1	2105	6094
1	2145	6095
1	2183	6096
1	2215	6097
1	2235	6098
1	2245	6099
1	2258	6100
1	2268	6101
1	2274	6102
1	2282	6103
1	2303	6104
1	2331	6105
1	2367	6106
1	2404	6107
1	2442	6108
1	2488	6109
1	2530	6110
1	2579	6111
1	2625	6112
1	2657	6113
1	2682	6114
1	2693	6115
1	2687	6116
1	2658	6117
1	2606	6118
1	2543	6119
1	2468	6120
1	2368	6121
1	2267	6122
1	2159	6123
1	2074	6124
1	2000	6125
1	1947	6126
1	1906	6127
1	1882	6128
1	1867	6129
1	1861	6130
1	1868	6131
1	1873	6132
1	1886	6133
1	1891	6134
1	1890	6135
1	1888	6136
1	1890	6137
1	1886	6138
1	1884	6139
1	1875	6140
1	1863	6141
1	1850	6142
1	1852	6143
1	1854	6144
1	1868	6145
1	1887	6146
1	1922	6147
1	1963	6148
1	2008	6149
1	2052	6150
1	2105	6151
1	2144	6152
1	2160	6153
1	2170	6154
1	2170	6155
1	2161	6156
1	2142	6157
1	2117	6158
1	2084	6159
1	2065	6160
1	2027	6161
1	1999	6162
1	1968	6163
1	1950	6164
1	1944	6165
1	1948	6166
1	1962	6167
1	1974	6168
1	2000	6169
1	2034	6170
1	2066	6171
1	2089	6172
1	2105	6173
1	2105	6174
1	2102	6175
1	2093	6176
1	2080	6177
1	2067	6178
1	2054	6179
1	2039	6180
1	2024	6181
1	2004	6182
1	1987	6183
1	1980	6184
1	1980	6185
1	1996	6186
1	2026	6187
1	2057	6188
1	2092	6189
1	2122	6190
1	2156	6191
1	2181	6192
1	2200	6193
1	2210	6194
1	2209	6195
1	2194	6196
1	2181	6197
1	2157	6198
1	2140	6199
1	2122	6200
1	2102	6201
1	2081	6202
1	2055	6203
1	2030	6204
1	2018	6205
1	2015	6206
1	2021	6207
1	2034	6208
1	2053	6209
1	2081	6210
1	2115	6211
1	2145	6212
1	2158	6213
1	2174	6214
1	2180	6215
1	2176	6216
1	2170	6217
1	2168	6218
1	2160	6219
1	2037	6240
1	2022	6241
1	2012	6242
1	2013	6243
1	2021	6244
1	2027	6245
1	2038	6246
1	2048	6247
1	2055	6248
1	2076	6249
1	2098	6250
1	2123	6251
1	2143	6252
1	2169	6253
1	2196	6254
1	2220	6255
1	2249	6256
1	2264	6257
1	2262	6258
1	2260	6259
1	2157	6220
1	2149	6221
1	2136	6222
1	2127	6223
1	2117	6224
1	2115	6225
1	2109	6226
1	2107	6227
1	2099	6228
1	2097	6229
1	2097	6230
1	2101	6231
1	2114	6232
1	2120	6233
1	2120	6234
1	2116	6235
1	2104	6236
1	2085	6237
1	2070	6238
1	2051	6239
1	2246	6260
1	2222	6261
1	2201	6262
1	2183	6263
1	2157	6264
1	2132	6265
1	2115	6266
1	2106	6267
1	2105	6268
1	2106	6269
1	2125	6270
1	2157	6271
1	2197	6272
1	2237	6273
1	2265	6274
1	2281	6275
1	2288	6276
1	2288	6277
1	2277	6278
1	2253	6279
1	2220	6280
1	2189	6281
1	2167	6282
1	2147	6283
1	2143	6284
1	2145	6285
1	2157	6286
1	2172	6287
1	2183	6288
1	2204	6289
1	2222	6290
1	2236	6291
1	2246	6292
1	2244	6293
1	2240	6294
1	2232	6295
1	2215	6296
1	2210	6297
1	2189	6298
1	2179	6299
1	2162	6300
1	2157	6301
1	2156	6302
1	2163	6303
1	2174	6304
1	2186	6305
1	2207	6306
1	2236	6307
1	2264	6308
1	2294	6309
1	2320	6310
1	2342	6311
1	2362	6312
1	2368	6313
1	2368	6314
1	2364	6315
1	2350	6316
1	2337	6317
1	2317	6318
1	2300	6319
1	2284	6320
1	2264	6321
1	2250	6322
1	2243	6323
1	2233	6324
1	2232	6325
1	2242	6326
1	2256	6327
1	2271	6328
1	2287	6329
1	2303	6330
1	2319	6331
1	2333	6332
1	2339	6333
1	2335	6334
1	2327	6335
1	2323	6336
1	2318	6337
1	2310	6338
1	2291	6339
1	2288	6340
1	2275	6341
1	2258	6342
1	2246	6343
1	2242	6344
1	2246	6345
1	2259	6346
1	2274	6347
1	2300	6348
1	2329	6349
1	2351	6350
1	2371	6351
1	2380	6352
1	2386	6353
1	2393	6354
1	2396	6355
1	2400	6356
1	2382	6357
1	2349	6358
1	2314	6359
1	2273	6360
1	2233	6361
1	2192	6362
1	2155	6363
1	2123	6364
1	2105	6365
1	2096	6366
1	2105	6367
1	2122	6368
1	2137	6369
1	2157	6370
1	2179	6371
1	2198	6372
1	2210	6373
1	2210	6374
1	2198	6375
1	2183	6376
1	2159	6377
1	2129	6378
1	2097	6379
1	2066	6380
1	2034	6381
1	2012	6382
1	1998	6383
1	1994	6384
1	2000	6385
1	2014	6386
1	2028	6387
1	2050	6388
1	2075	6389
1	2093	6390
1	2105	6391
1	2111	6392
1	2112	6393
1	2114	6394
1	2105	6395
1	2091	6396
1	2074	6397
1	2040	6398
1	2001	6399
1	1967	6400
1	1938	6401
1	1911	6402
1	1893	6403
1	1881	6404
1	1883	6405
1	1893	6406
1	1906	6407
1	1921	6408
1	1947	6409
1	1974	6410
1	2002	6411
1	2026	6412
1	2032	6413
1	2030	6414
1	2025	6415
1	2012	6416
1	1993	6417
1	1961	6418
1	1922	6419
1	1881	6420
1	1837	6421
1	1792	6422
1	1751	6423
1	1730	6424
1	1733	6425
1	1747	6426
1	1777	6427
1	1825	6428
1	1870	6429
1	1917	6430
1	1953	6431
1	1978	6432
1	1981	6433
1	1975	6434
1	1959	6435
1	1934	6436
1	1905	6437
1	1868	6438
1	1836	6439
1	1795	6440
1	1764	6441
1	1731	6442
1	1718	6443
1	1710	6444
1	1708	6445
1	1726	6446
1	1746	6447
1	1775	6448
1	1817	6449
1	1855	6450
1	1886	6451
1	1913	6452
1	1922	6453
1	1935	6454
1	1939	6455
1	1934	6456
1	1917	6457
1	1892	6458
1	1864	6459
1	1841	6460
1	1809	6461
1	1782	6462
1	1764	6463
1	1746	6464
1	1736	6465
1	1729	6466
1	1731	6467
1	1738	6468
1	1760	6469
1	1782	6470
1	1813	6471
1	1839	6472
1	1864	6473
1	1883	6474
1	1898	6475
1	1906	6476
1	1904	6477
1	1895	6478
1	1885	6479
1	1868	6480
1	1843	6481
1	1817	6482
1	1782	6483
1	1759	6484
1	1746	6485
1	1740	6486
1	1752	6487
1	1767	6488
1	1791	6489
1	1818	6490
1	1841	6491
1	1850	6492
1	1853	6493
1	1848	6494
1	1843	6495
1	1839	6496
1	1825	6497
1	1791	6498
1	1764	6499
1	1733	6500
1	1702	6501
1	1688	6502
1	1683	6503
1	1685	6504
1	1694	6505
1	1712	6506
1	1736	6507
1	1762	6508
1	1791	6509
1	1820	6510
1	1844	6511
1	1858	6512
1	1861	6513
1	1856	6514
1	1843	6515
1	1822	6516
1	1796	6517
1	1769	6518
1	1738	6519
1	1702	6520
1	1670	6521
1	1644	6522
1	1628	6523
1	1620	6524
1	1618	6525
1	1625	6526
1	1636	6527
1	1649	6528
1	1672	6529
1	1693	6530
1	1712	6531
1	1744	6532
1	1767	6533
1	1787	6534
1	1800	6535
1	1817	6536
1	1823	6537
1	1818	6538
1	1800	6539
1	1773	6540
1	1755	6541
1	1730	6542
1	1702	6543
1	1681	6544
1	1665	6545
1	1656	6546
1	1657	6547
1	1670	6548
1	1686	6549
1	1707	6550
1	1742	6551
1	1777	6552
1	1808	6553
1	1827	6554
1	1833	6555
1	1831	6556
1	1817	6557
1	1791	6558
1	1764	6559
1	1737	6560
1	1708	6561
1	1686	6562
1	1674	6563
1	1660	6564
1	1651	6565
1	1639	6566
1	1634	6567
1	1632	6568
1	1634	6569
1	1643	6570
1	1649	6571
1	1656	6572
1	1659	6573
1	1669	6574
1	1690	6575
1	1712	6576
1	1738	6577
1	1763	6578
1	1783	6579
1	1802	6580
1	1812	6581
1	1803	6582
1	1783	6583
1	1756	6584
1	1726	6585
1	1706	6586
1	1695	6587
1	1688	6588
1	1687	6589
1	1696	6590
1	1710	6591
1	1720	6592
1	1718	6593
1	1712	6594
1	1697	6595
1	1678	6596
1	1654	6597
1	1625	6598
1	1599	6599
1	1577	6600
1	1555	6601
1	1538	6602
1	1525	6603
1	1518	6604
1	1520	6605
1	1529	6606
1	1553	6607
1	1587	6608
1	1632	6609
1	1678	6610
1	1719	6611
1	1759	6612
1	1788	6613
1	1802	6614
1	1803	6615
1	1786	6616
1	1755	6617
1	1708	6618
1	1660	6619
1	1609	6620
1	1557	6621
1	1514	6622
1	1482	6623
1	1461	6624
1	1456	6625
1	1475	6626
1	1505	6627
1	1546	6628
1	1586	6629
1	1631	6630
1	1668	6631
1	1703	6632
1	1723	6633
1	1735	6634
1	1728	6635
1	1710	6636
1	1683	6637
1	1639	6638
1	1593	6639
1	1602	6660
1	1557	6661
1	1526	6662
1	1494	6663
1	1473	6664
1	1458	6665
1	1455	6666
1	1461	6667
1	1478	6668
1	1499	6669
1	1521	6670
1	1548	6671
1	1579	6672
1	1607	6673
1	1645	6674
1	1675	6675
1	1692	6676
1	1697	6677
1	1674	6678
1	1643	6679
1	1554	6660
1	1515	6661
1	1485	6662
1	1473	6663
1	1467	6664
1	1476	6665
1	1490	6666
1	1515	6667
1	1548	6668
1	1581	6669
1	1620	6670
1	1660	6671
1	1693	6672
1	1724	6673
1	1747	6674
1	1751	6675
1	1749	6676
1	1721	6677
1	1686	6678
1	1647	6679
1	1595	6680
1	1542	6681
1	1495	6682
1	1451	6683
1	1424	6684
1	1404	6685
1	1398	6686
1	1399	6687
1	1417	6688
1	1440	6689
1	1472	6690
1	1503	6691
1	1529	6692
1	1544	6693
1	1556	6694
1	1567	6695
1	1566	6696
1	1559	6697
1	1542	6698
1	1521	6699
1	1498	6700
1	1476	6701
1	1460	6702
1	1441	6703
1	1427	6704
1	1423	6705
1	1424	6706
1	1429	6707
1	1437	6708
1	1450	6709
1	1472	6710
1	1497	6711
1	1524	6712
1	1547	6713
1	1567	6714
1	1580	6715
1	1587	6716
1	1593	6717
1	1584	6718
1	1566	6719
1	1467	6740
1	1450	6741
1	1433	6742
1	1423	6743
1	1402	6744
1	1380	6745
1	1375	6746
1	1377	6747
1	1395	6748
1	1418	6749
1	1445	6750
1	1469	6751
1	1489	6752
1	1503	6753
1	1518	6754
1	1529	6755
1	1533	6756
1	1529	6757
1	1505	6758
1	1478	6759
1	1541	6720
1	1512	6721
1	1484	6722
1	1454	6723
1	1433	6724
1	1422	6725
1	1420	6726
1	1424	6727
1	1449	6728
1	1472	6729
1	1497	6730
1	1521	6731
1	1538	6732
1	1539	6733
1	1535	6734
1	1528	6735
1	1517	6736
1	1505	6737
1	1490	6738
1	1477	6739
1	1448	6760
1	1407	6761
1	1370	6762
1	1346	6763
1	1341	6764
1	1343	6765
1	1348	6766
1	1366	6767
1	1394	6768
1	1424	6769
1	1458	6770
1	1491	6771
1	1517	6772
1	1543	6773
1	1564	6774
1	1577	6775
1	1579	6776
1	1566	6777
1	1543	6778
1	1505	6779
1	1398	6800
1	1363	6801
1	1328	6802
1	1292	6803
1	1267	6804
1	1256	6805
1	1267	6806
1	1286	6807
1	1314	6808
1	1347	6809
1	1398	6810
1	1440	6811
1	1481	6812
1	1508	6813
1	1530	6814
1	1537	6815
1	1526	6816
1	1503	6817
1	1477	6818
1	1445	6819
1	1462	6780
1	1417	6781
1	1370	6782
1	1328	6783
1	1304	6784
1	1292	6785
1	1292	6786
1	1306	6787
1	1333	6788
1	1368	6789
1	1404	6790
1	1437	6791
1	1459	6792
1	1478	6793
1	1489	6794
1	1489	6795
1	1477	6796
1	1467	6797
1	1448	6798
1	1424	6799
1	1405	6820
1	1359	6821
1	1320	6822
1	1285	6823
1	1260	6824
1	1242	6825
1	1240	6826
1	1253	6827
1	1268	6828
1	1296	6829
1	1331	6830
1	1367	6831
1	1403	6832
1	1427	6833
1	1448	6834
1	1463	6835
1	1472	6836
1	1476	6837
1	1474	6838
1	1458	6839
1	1439	6840
1	1410	6841
1	1374	6842
1	1350	6843
1	1332	6844
1	1319	6845
1	1319	6846
1	1332	6847
1	1346	6848
1	1363	6849
1	1376	6850
1	1398	6851
1	1413	6852
1	1425	6853
1	1436	6854
1	1442	6855
1	1442	6856
1	1437	6857
1	1420	6858
1	1395	6859
1	1370	6860
1	1355	6861
1	1346	6862
1	1333	6863
1	1323	6864
1	1319	6865
1	1319	6866
1	1319	6867
1	1319	6868
1	1322	6869
1	1327	6870
1	1338	6871
1	1357	6872
1	1374	6873
1	1403	6874
1	1424	6875
1	1436	6876
1	1448	6877
1	1443	6878
1	1428	6879
1	1406	6880
1	1377	6881
1	1355	6882
1	1332	6883
1	1317	6884
1	1305	6885
1	1310	6886
1	1319	6887
1	1323	6888
1	1332	6889
1	1346	6890
1	1361	6891
1	1381	6892
1	1390	6893
1	1384	6894
1	1371	6895
1	1338	6896
1	1304	6897
1	1267	6898
1	1235	6899
1	1214	6900
1	1190	6901
1	1175	6902
1	1166	6903
1	1162	6904
1	1170	6905
1	1191	6906
1	1224	6907
1	1251	6908
1	1267	6909
1	1274	6910
1	1280	6911
1	1286	6912
1	1292	6913
1	1293	6914
1	1289	6915
1	1281	6916
1	1274	6917
1	1261	6918
1	1242	6919
1	1228	6920
1	1210	6921
1	1202	6922
1	1205	6923
1	1203	6924
1	1201	6925
1	1199	6926
1	1202	6927
1	1209	6928
1	1217	6929
1	1230	6930
1	1245	6931
1	1260	6932
1	1269	6933
1	1287	6934
1	1293	6935
1	1285	6936
1	1268	6937
1	1239	6938
1	1209	6939
1	1184	6940
1	1159	6941
1	1139	6942
1	1126	6943
1	1119	6944
1	1121	6945
1	1134	6946
1	1155	6947
1	1184	6948
1	1220	6949
1	1265	6950
1	1301	6951
1	1330	6952
1	1340	6953
1	1346	6954
1	1344	6955
1	1330	6956
1	1298	6957
1	1255	6958
1	1206	6959
1	1600	6980
1	1605	6981
1	1607	6982
1	1607	6983
1	1620	6984
1	1641	6985
1	1670	6986
1	1710	6987
1	1759	6988
1	1813	6989
1	1849	6990
1	1871	6991
1	1884	6992
1	1875	6993
1	1857	6994
1	1821	6995
1	1762	6996
1	1694	6997
1	1605	6998
1	1503	6999
1	1162	6960
1	1124	6961
1	1101	6962
1	1081	6963
1	1072	6964
1	1075	6965
1	1082	6966
1	1099	6967
1	1136	6968
1	1179	6969
1	1232	6970
1	1287	6971
1	1345	6972
1	1400	6973
1	1446	6974
1	1481	6975
1	1517	6976
1	1548	6977
1	1571	6978
1	1590	6979
1	1383	7000
1	1317	7001
1	1229	7002
1	1150	7003
1	1083	7004
1	1035	7005
1	1008	7006
1	1003	7007
1	1011	7008
1	1031	7009
1	1058	7010
1	1085	7011
1	1127	7012
1	1165	7013
1	1193	7014
1	1208	7015
1	1206	7016
1	1186	7017
1	1155	7018
1	1118	7019
1	1071	7020
1	1023	7021
1	983	7022
1	952	7023
1	941	7024
1	951	7025
1	981	7026
1	1022	7027
1	1071	7028
1	1124	7029
1	1181	7030
1	1237	7031
1	1280	7032
1	1313	7033
1	1334	7034
1	1346	7035
1	1346	7036
1	1332	7037
1	1294	7038
1	1247	7039
1	1199	7040
1	1148	7041
1	1098	7042
1	1058	7043
1	1024	7044
1	991	7045
1	977	7046
1	975	7047
1	999	7048
1	1042	7049
1	1097	7050
1	1160	7051
1	1217	7052
1	1266	7053
1	1301	7054
1	1320	7055
1	1323	7056
1	1318	7057
1	1276	7058
1	1230	7059
1	1177	7060
1	1132	7061
1	1084	7062
1	1049	7063
1	1031	7064
1	1031	7065
1	1052	7066
1	1071	7067
1	1094	7068
1	1120	7069
1	1139	7070
1	1161	7071
1	1184	7072
1	1197	7073
1	1205	7074
1	1204	7075
1	1204	7076
1	1196	7077
1	1181	7078
1	1161	7079
1	1134	7080
1	1111	7081
1	1100	7082
1	1098	7083
1	1110	7084
1	1123	7085
1	1135	7086
1	1143	7087
1	1152	7088
1	1158	7089
1	1162	7090
1	1162	7091
1	1162	7092
1	1153	7093
1	1144	7094
1	1134	7095
1	1122	7096
1	1111	7097
1	1092	7098
1	1079	7099
1	1070	7100
1	1062	7101
1	1062	7102
1	1058	7103
1	1051	7104
1	1053	7105
1	1063	7106
1	1084	7107
1	1114	7108
1	1150	7109
1	1188	7110
1	1218	7111
1	1243	7112
1	1259	7113
1	1264	7114
1	1266	7115
1	1254	7116
1	1242	7117
1	1231	7118
1	1211	7119
1	1186	7120
1	1155	7121
1	1125	7122
1	1102	7123
1	1089	7124
1	1095	7125
1	1105	7126
1	1123	7127
1	1144	7128
1	1171	7129
1	1201	7130
1	1227	7131
1	1252	7132
1	1273	7133
1	1293	7134
1	1305	7135
1	1308	7136
1	1297	7137
1	1278	7138
1	1243	7139
1	1215	7140
1	1178	7141
1	1145	7142
1	1114	7143
1	1092	7144
1	1081	7145
1	1076	7146
1	1094	7147
1	1110	7148
1	1145	7149
1	1188	7150
1	1233	7151
1	1271	7152
1	1305	7153
1	1332	7154
1	1347	7155
1	1346	7156
1	1325	7157
1	1287	7158
1	1241	7159
1	1229	7180
1	1204	7181
1	1188	7182
1	1183	7183
1	1188	7184
1	1202	7185
1	1219	7186
1	1242	7187
1	1267	7188
1	1293	7189
1	1322	7190
1	1346	7191
1	1379	7192
1	1410	7193
1	1425	7194
1	1437	7195
1	1437	7196
1	1432	7197
1	1422	7198
1	1401	7199
1	1193	7160
1	1148	7161
1	1109	7162
1	1083	7163
1	1066	7164
1	1062	7165
1	1071	7166
1	1098	7167
1	1136	7168
1	1182	7169
1	1232	7170
1	1279	7171
1	1315	7172
1	1332	7173
1	1346	7174
1	1343	7175
1	1325	7176
1	1309	7177
1	1283	7178
1	1256	7179
1	1372	7200
1	1345	7201
1	1320	7202
1	1295	7203
1	1278	7204
1	1269	7205
1	1267	7206
1	1278	7207
1	1297	7208
1	1330	7209
1	1372	7210
1	1416	7211
1	1450	7212
1	1472	7213
1	1481	7214
1	1477	7215
1	1465	7216
1	1449	7217
1	1424	7218
1	1398	7219
1	1363	7220
1	1320	7221
1	1279	7222
1	1246	7223
1	1220	7224
1	1206	7225
1	1201	7226
1	1209	7227
1	1233	7228
1	1267	7229
1	1296	7230
1	1323	7231
1	1343	7232
1	1348	7233
1	1352	7234
1	1349	7235
1	1341	7236
1	1332	7237
1	1315	7238
1	1293	7239
1	1278	7240
1	1261	7241
1	1236	7242
1	1214	7243
1	1191	7244
1	1188	7245
1	1193	7246
1	1206	7247
1	1226	7248
1	1251	7249
1	1282	7250
1	1312	7251
1	1344	7252
1	1355	7253
1	1359	7254
1	1346	7255
1	1331	7256
1	1296	7257
1	1251	7258
1	1197	7259
1	1141	7260
1	1086	7261
1	1035	7262
1	995	7263
1	963	7264
1	949	7265
1	949	7266
1	965	7267
1	1004	7268
1	1044	7269
1	1094	7270
1	1147	7271
1	1190	7272
1	1229	7273
1	1261	7274
1	1281	7275
1	1291	7276
1	1286	7277
1	1264	7278
1	1229	7279
1	1184	7280
1	1129	7281
1	1074	7282
1	1026	7283
1	991	7284
1	965	7285
1	953	7286
1	955	7287
1	976	7288
1	998	7289
1	1027	7290
1	1057	7291
1	1076	7292
1	1084	7293
1	1083	7294
1	1069	7295
1	1040	7296
1	1008	7297
1	979	7298
1	950	7299
1	926	7300
1	900	7301
1	887	7302
1	883	7303
1	890	7304
1	903	7305
1	925	7306
1	953	7307
1	990	7308
1	1025	7309
1	1063	7310
1	1103	7311
1	1139	7312
1	1164	7313
1	1176	7314
1	1179	7315
1	1170	7316
1	1153	7317
1	1132	7318
1	1107	7319
1	993	7340
1	978	7341
1	965	7342
1	958	7343
1	958	7344
1	977	7345
1	988	7346
1	1005	7347
1	1022	7348
1	1049	7349
1	1083	7350
1	1114	7351
1	1139	7352
1	1150	7353
1	1141	7354
1	1123	7355
1	1087	7356
1	1052	7357
1	1009	7358
1	974	7359
1	1076	7320
1	1043	7321
1	1011	7322
1	979	7323
1	949	7324
1	927	7325
1	919	7326
1	925	7327
1	936	7328
1	950	7329
1	965	7330
1	991	7331
1	1012	7332
1	1026	7333
1	1034	7334
1	1041	7335
1	1043	7336
1	1039	7337
1	1022	7338
1	1005	7339
1	933	7360
1	905	7361
1	887	7362
1	874	7363
1	869	7364
1	874	7365
1	885	7366
1	902	7367
1	923	7368
1	943	7369
1	964	7370
1	981	7371
1	1004	7372
1	1019	7373
1	1033	7374
1	1049	7375
1	1053	7376
1	1046	7377
1	1031	7378
1	1017	7379
1	998	7380
1	979	7381
1	961	7382
1	948	7383
1	945	7384
1	952	7385
1	962	7386
1	988	7387
1	1020	7388
1	1052	7389
1	1085	7390
1	1122	7391
1	1151	7392
1	1166	7393
1	1175	7394
1	1161	7395
1	1129	7396
1	1082	7397
1	1040	7398
1	996	7399
1	953	7400
1	926	7401
1	905	7402
1	900	7403
1	900	7404
1	914	7405
1	941	7406
1	989	7407
1	1031	7408
1	1071	7409
1	1106	7410
1	1134	7411
1	1161	7412
1	1175	7413
1	1186	7414
1	1188	7415
1	1188	7416
1	1175	7417
1	1161	7418
1	1134	7419
1	1106	7420
1	1080	7421
1	1057	7422
1	1029	7423
1	1005	7424
1	984	7425
1	979	7426
1	983	7427
1	996	7428
1	1019	7429
1	1048	7430
1	1075	7431
1	1098	7432
1	1110	7433
1	1119	7434
1	1113	7435
1	1101	7436
1	1084	7437
1	1062	7438
1	1033	7439
1	1001	7460
1	973	7461
1	953	7462
1	953	7463
1	962	7464
1	990	7465
1	1017	7466
1	1047	7467
1	1075	7468
1	1098	7469
1	1121	7470
1	1138	7471
1	1150	7472
1	1160	7473
1	1168	7474
1	1175	7475
1	1174	7476
1	1171	7477
1	1161	7478
1	1142	7479
1	1121	7480
1	1094	7481
1	1069	7482
1	1043	7483
1	1018	7484
1	1004	7485
1	999	7486
1	1005	7487
1	1013	7488
1	1031	7489
1	1053	7490
1	1071	7491
1	1099	7492
1	1122	7493
1	1135	7494
1	1151	7495
1	1163	7496
1	1175	7497
1	1177	7498
1	1175	7499
1	1014	7440
1	996	7441
1	984	7442
1	978	7443
1	976	7444
1	980	7445
1	1001	7446
1	1031	7447
1	1073	7448
1	1123	7449
1	1164	7450
1	1201	7451
1	1215	7452
1	1220	7453
1	1215	7454
1	1201	7455
1	1175	7456
1	1136	7457
1	1084	7458
1	1036	7459
1	1163	7500
1	1143	7501
1	1110	7502
1	1070	7503
1	1029	7504
1	995	7505
1	969	7506
1	964	7507
1	981	7508
1	1005	7509
1	1031	7510
1	1061	7511
1	1094	7512
1	1124	7513
1	1152	7514
1	1168	7515
1	1175	7516
1	1167	7517
1	1148	7518
1	1124	7519
1	1097	7520
1	1065	7521
1	1037	7522
1	1024	7523
1	1019	7524
1	1022	7525
1	1034	7526
1	1062	7527
1	1091	7528
1	1116	7529
1	1137	7530
1	1152	7531
1	1162	7532
1	1160	7533
1	1161	7534
1	1161	7535
1	1155	7536
1	1147	7537
1	1134	7538
1	1114	7539
1	1096	7540
1	1080	7541
1	1060	7542
1	1044	7543
1	1034	7544
1	1043	7545
1	1059	7546
1	1084	7547
1	1110	7548
1	1136	7549
1	1165	7550
1	1186	7551
1	1202	7552
1	1214	7553
1	1215	7554
1	1213	7555
1	1204	7556
1	1187	7557
1	1161	7558
1	1134	7559
1	1101	7560
1	1073	7561
1	1053	7562
1	1031	7563
1	1018	7564
1	1019	7565
1	1022	7566
1	1035	7567
1	1062	7568
1	1085	7569
1	1111	7570
1	1136	7571
1	1159	7572
1	1175	7573
1	1186	7574
1	1188	7575
1	1186	7576
1	1175	7577
1	1157	7578
1	1145	7579
1	1141	7580
1	1141	7581
1	1148	7582
1	1148	7583
1	1147	7584
1	1149	7585
1	1161	7586
1	1164	7587
1	1170	7588
1	1176	7589
1	1188	7590
1	1202	7591
1	1215	7592
1	1215	7593
1	1214	7594
1	1209	7595
1	1198	7596
1	1186	7597
1	1161	7598
1	1129	7599
1	1093	7600
1	1063	7601
1	1049	7602
1	1042	7603
1	1050	7604
1	1070	7605
1	1099	7606
1	1135	7607
1	1171	7608
1	1205	7609
1	1238	7610
1	1267	7611
1	1295	7612
1	1310	7613
1	1305	7614
1	1293	7615
1	1269	7616
1	1241	7617
1	1204	7618
1	1162	7619
1	1118	7620
1	1076	7621
1	1044	7622
1	1018	7623
1	1005	7624
1	1005	7625
1	1014	7626
1	1032	7627
1	1063	7628
1	1096	7629
1	1136	7630
1	1173	7631
1	1199	7632
1	1223	7633
1	1234	7634
1	1236	7635
1	1225	7636
1	1211	7637
1	1188	7638
1	1166	7639
1	1148	7640
1	1127	7641
1	1110	7642
1	1089	7643
1	1083	7644
1	1079	7645
1	1089	7646
1	1112	7647
1	1144	7648
1	1179	7649
1	1215	7650
1	1250	7651
1	1282	7652
1	1302	7653
1	1312	7654
1	1312	7655
1	1302	7656
1	1288	7657
1	1268	7658
1	1238	7659
1	1206	7660
1	1179	7661
1	1162	7662
1	1148	7663
1	1136	7664
1	1136	7665
1	1142	7666
1	1152	7667
1	1161	7668
1	1175	7669
1	1185	7670
1	1194	7671
1	1210	7672
1	1227	7673
1	1241	7674
1	1247	7675
1	1247	7676
1	1241	7677
1	1229	7678
1	1215	7679
1	1202	7680
1	1188	7681
1	1166	7682
1	1139	7683
1	1120	7684
1	1105	7685
1	1101	7686
1	1121	7687
1	1143	7688
1	1175	7689
1	1210	7690
1	1248	7691
1	1287	7692
1	1323	7693
1	1354	7694
1	1377	7695
1	1393	7696
1	1372	7697
1	1346	7698
1	1305	7699
1	1265	7700
1	1219	7701
1	1180	7702
1	1145	7703
1	1128	7704
1	1128	7705
1	1142	7706
1	1167	7707
1	1206	7708
1	1250	7709
1	1292	7710
1	1325	7711
1	1350	7712
1	1367	7713
1	1370	7714
1	1360	7715
1	1343	7716
1	1319	7717
1	1293	7718
1	1266	7719
1	1229	7720
1	1197	7721
1	1179	7722
1	1179	7723
1	1189	7724
1	1212	7725
1	1228	7726
1	1242	7727
1	1262	7728
1	1283	7729
1	1309	7730
1	1325	7731
1	1346	7732
1	1364	7733
1	1372	7734
1	1366	7735
1	1347	7736
1	1322	7737
1	1292	7738
1	1257	7739
1	1232	7740
1	1205	7741
1	1188	7742
1	1175	7743
1	1173	7744
1	1175	7745
1	1183	7746
1	1190	7747
1	1201	7748
1	1212	7749
1	1215	7750
1	1226	7751
1	1228	7752
1	1232	7753
1	1238	7754
1	1241	7755
1	1247	7756
1	1253	7757
1	1250	7758
1	1243	7759
1	1235	7760
1	1219	7761
1	1201	7762
1	1185	7763
1	1166	7764
1	1152	7765
1	1139	7766
1	1142	7767
1	1161	7768
1	1180	7769
1	1201	7770
1	1224	7771
1	1242	7772
1	1258	7773
1	1261	7774
1	1251	7775
1	1230	7776
1	1214	7777
1	1187	7778
1	1166	7779
1	1139	7800
1	1115	7801
1	1102	7802
1	1093	7803
1	1089	7804
1	1096	7805
1	1107	7806
1	1132	7807
1	1160	7808
1	1187	7809
1	1216	7810
1	1241	7811
1	1263	7812
1	1278	7813
1	1284	7814
1	1283	7815
1	1279	7816
1	1273	7817
1	1265	7818
1	1261	7819
1	1151	7780
1	1145	7781
1	1146	7782
1	1150	7783
1	1161	7784
1	1178	7785
1	1206	7786
1	1241	7787
1	1275	7788
1	1312	7789
1	1341	7790
1	1357	7791
1	1372	7792
1	1368	7793
1	1351	7794
1	1332	7795
1	1302	7796
1	1255	7797
1	1215	7798
1	1175	7799
1	1265	7820
1	1273	7821
1	1281	7822
1	1297	7823
1	1314	7824
1	1334	7825
1	1364	7826
1	1400	7827
1	1449	7828
1	1504	7829
1	1563	7830
1	1618	7831
1	1670	7832
1	1707	7833
1	1741	7834
1	1766	7835
1	1786	7836
1	1809	7837
1	1817	7838
1	1817	7839
1	1815	7840
1	1814	7841
1	1791	7842
1	1778	7843
1	1755	7844
1	1747	7845
1	1748	7846
1	1752	7847
1	1759	7848
1	1755	7849
1	1749	7850
1	1740	7851
1	1724	7852
1	1692	7853
1	1647	7854
1	1584	7855
1	1515	7856
1	1433	7857
1	1346	7858
1	1270	7859
1	1202	7860
1	1146	7861
1	1107	7862
1	1078	7863
1	1068	7864
1	1074	7865
1	1088	7866
1	1119	7867
1	1161	7868
1	1193	7869
1	1230	7870
1	1267	7871
1	1298	7872
1	1321	7873
1	1337	7874
1	1346	7875
1	1350	7876
1	1350	7877
1	1338	7878
1	1332	7879
1	1321	7880
1	1314	7881
1	1309	7882
1	1298	7883
1	1292	7884
1	1286	7885
1	1292	7886
1	1307	7887
1	1328	7888
1	1352	7889
1	1382	7890
1	1412	7891
1	1430	7892
1	1437	7893
1	1440	7894
1	1429	7895
1	1409	7896
1	1379	7897
1	1343	7898
1	1305	7899
1	1274	7900
1	1252	7901
1	1233	7902
1	1222	7903
1	1225	7904
1	1235	7905
1	1247	7906
1	1266	7907
1	1292	7908
1	1320	7909
1	1354	7910
1	1381	7911
1	1413	7912
1	1436	7913
1	1449	7914
1	1450	7915
1	1441	7916
1	1420	7917
1	1383	7918
1	1346	7919
1	1346	7940
1	1319	7941
1	1293	7942
1	1279	7943
1	1275	7944
1	1276	7945
1	1295	7946
1	1322	7947
1	1358	7948
1	1398	7949
1	1440	7950
1	1478	7951
1	1508	7952
1	1525	7953
1	1529	7954
1	1529	7955
1	1528	7956
1	1521	7957
1	1517	7958
1	1497	7959
1	1319	7920
1	1296	7921
1	1290	7922
1	1284	7923
1	1289	7924
1	1305	7925
1	1325	7926
1	1355	7927
1	1391	7928
1	1419	7929
1	1440	7930
1	1458	7931
1	1468	7932
1	1476	7933
1	1476	7934
1	1469	7935
1	1452	7936
1	1436	7937
1	1407	7938
1	1375	7939
1	1474	7960
1	1450	7961
1	1439	7962
1	1428	7963
1	1431	7964
1	1445	7965
1	1464	7966
1	1476	7967
1	1476	7968
1	1476	7969
1	1475	7970
1	1468	7971
1	1472	7972
1	1482	7973
1	1491	7974
1	1500	7975
1	1503	7976
1	1501	7977
1	1490	7978
1	1475	7979
1	1510	8000
1	1498	8000
1	1490	8002
1	1476	8003
1	1468	8004
1	1467	8005
1	1475	8006
1	1487	8007
1	1503	8008
1	1528	8009
1	1544	8010
1	1559	8011
1	1574	8012
1	1580	8013
1	1585	8013
1	1587	8015
1	1584	8016
1	1569	8016
1	1551	8018
1	1525	8019
1	1450	7980
1	1425	7981
1	1406	7982
1	1393	7983
1	1384	7984
1	1391	7985
1	1397	7986
1	1410	7987
1	1428	7988
1	1451	7989
1	1481	7990
1	1508	7991
1	1534	7992
1	1557	7993
1	1568	7994
1	1567	7995
1	1560	7996
1	1544	7997
1	1533	7998
1	1524	7999
1	1503	8020
1	1485	8021
1	1482	8022
1	1481	8023
1	1490	8024
1	1507	8025
1	1533	8026
1	1569	8027
1	1597	8028
1	1634	8029
1	1674	8029
1	1712	8031
1	1748	8032
1	1764	8032
1	1763	8034
1	1749	8035
1	1727	8036
1	1701	8037
1	1667	8038
1	1628	8039
1	1593	8040
1	1560	8041
1	1534	8042
1	1521	8043
1	1514	8044
1	1519	8045
1	1537	8045
1	1572	8047
1	1616	8048
1	1663	8048
1	1711	8050
1	1757	8051
1	1796	8052
1	1827	8053
1	1844	8054
1	1849	8055
1	1843	8056
1	1827	8057
1	1795	8058
1	1769	8059
1	1740	8060
1	1706	8061
1	1670	8061
1	1644	8063
1	1625	8064
1	1615	8064
1	1616	8066
1	1625	8067
1	1638	8068
1	1661	8069
1	1690	8070
1	1716	8071
1	1738	8072
1	1751	8073
1	1751	8074
1	1747	8074
1	1737	8076
1	1731	8077
1	1718	8077
1	1711	8079
1	1698	8080
1	1686	8080
1	1670	8082
1	1656	8083
1	1647	8084
1	1636	8085
1	1634	8086
1	1641	8087
1	1647	8088
1	1660	8089
1	1679	8090
1	1687	8090
1	1696	8092
1	1690	8093
1	1681	8093
1	1669	8095
1	1657	8096
1	1643	8096
1	1633	8098
1	1624	8099
1	1616	8100
1	1609	8101
1	1607	8102
1	1600	8103
1	1602	8104
1	1609	8105
1	1618	8106
1	1629	8106
1	1634	8108
1	1634	8109
1	1635	8109
1	1634	8111
1	1634	8112
1	1632	8113
1	1623	8114
1	1607	8115
1	1581	8116
1	1557	8117
1	1531	8118
1	1503	8119
1	1474	8120
1	1439	8121
1	1413	8122
1	1384	8122
1	1368	8124
1	1358	8125
1	1359	8125
1	1372	8127
1	1397	8128
1	1424	8129
1	1454	8130
1	1482	8131
1	1503	8132
1	1510	8133
1	1515	8134
1	1511	8135
1	1498	8136
1	1481	8137
1	1450	8138
1	1411	8138
1	1374	8140
1	1346	8141
1	1318	8141
1	1305	8143
1	1298	8144
1	1307	8145
1	1325	8146
1	1356	8147
1	1392	8148
1	1424	8149
1	1450	8150
1	1476	8151
1	1489	8152
1	1492	8153
1	1499	8154
1	1491	8154
1	1477	8156
1	1467	8157
1	1446	8157
1	1421	8159
1	1383	8160
1	1350	8161
1	1328	8162
1	1316	8163
1	1318	8164
1	1331	8165
1	1355	8166
1	1384	8167
1	1420	8168
1	1441	8169
1	1464	8170
1	1477	8170
1	1485	8172
1	1490	8173
1	1489	8173
1	1479	8175
1	1466	8176
1	1439	8177
1	1401	8178
1	1361	8179
1	1323	8200
1	1293	8201
1	1275	8202
1	1265	8203
1	1265	8204
1	1273	8205
1	1296	8206
1	1330	8207
1	1361	8208
1	1395	8209
1	1421	8210
1	1440	8211
1	1453	8212
1	1451	8213
1	1445	8214
1	1430	8215
1	1413	8216
1	1401	8217
1	1393	8218
1	1393	8219
1	1398	8200
1	1404	8201
1	1408	8202
1	1405	8203
1	1407	8204
1	1409	8205
1	1413	8206
1	1422	8207
1	1423	8208
1	1428	8209
1	1438	8210
1	1453	8211
1	1477	8212
1	1500	8213
1	1517	8214
1	1526	8215
1	1521	8216
1	1505	8217
1	1487	8218
1	1463	8219
1	1437	8220
1	1413	8221
1	1396	8222
1	1373	8223
1	1372	8224
1	1383	8225
1	1400	8226
1	1426	8227
1	1450	8228
1	1476	8229
1	1505	8230
1	1535	8231
1	1562	8232
1	1581	8233
1	1593	8234
1	1597	8235
1	1598	8236
1	1589	8237
1	1556	8238
1	1520	8239
1	1476	8240
1	1437	8241
1	1409	8242
1	1384	8243
1	1381	8244
1	1392	8245
1	1412	8246
1	1428	8247
1	1445	8248
1	1466	8249
1	1490	8250
1	1515	8251
1	1538	8252
1	1551	8253
1	1555	8254
1	1549	8255
1	1531	8256
1	1503	8257
1	1466	8258
1	1431	8259
1	1395	8260
1	1364	8261
1	1351	8262
1	1355	8263
1	1368	8264
1	1384	8265
1	1409	8266
1	1431	8267
1	1451	8268
1	1479	8269
1	1510	8270
1	1541	8271
1	1567	8272
1	1586	8273
1	1589	8274
1	1578	8275
1	1555	8276
1	1533	8277
1	1505	8278
1	1479	8279
1	1451	8280
1	1428	8281
1	1415	8282
1	1405	8283
1	1406	8284
1	1416	8285
1	1440	8286
1	1481	8287
1	1517	8288
1	1553	8289
1	1584	8290
1	1608	8291
1	1629	8292
1	1638	8293
1	1635	8294
1	1622	8295
1	1604	8296
1	1580	8297
1	1542	8298
1	1503	8299
1	1463	8300
1	1428	8301
1	1415	8302
1	1410	8303
1	1412	8304
1	1424	8305
1	1448	8306
1	1474	8307
1	1503	8308
1	1531	8309
1	1564	8310
1	1590	8311
1	1613	8312
1	1626	8313
1	1631	8314
1	1621	8315
1	1604	8316
1	1576	8317
1	1533	8318
1	1491	8319
1	1452	8320
1	1426	8321
1	1412	8322
1	1402	8323
1	1398	8324
1	1399	8325
1	1413	8326
1	1436	8327
1	1459	8328
1	1492	8329
1	1529	8330
1	1572	8331
1	1616	8332
1	1647	8333
1	1670	8334
1	1686	8335
1	1687	8336
1	1672	8337
1	1647	8338
1	1616	8339
1	1586	8340
1	1555	8341
1	1530	8342
1	1513	8343
1	1504	8344
1	1502	8345
1	1502	8346
1	1507	8347
1	1524	8348
1	1548	8349
1	1570	8350
1	1595	8351
1	1632	8352
1	1652	8353
1	1660	8354
1	1651	8355
1	1625	8356
1	1584	8357
1	1538	8358
1	1494	8359
1	1456	8360
1	1430	8361
1	1412	8362
1	1411	8363
1	1420	8364
1	1437	8365
1	1459	8366
1	1485	8367
1	1513	8368
1	1541	8369
1	1564	8370
1	1583	8371
1	1600	8372
1	1607	8373
1	1619	8374
1	1633	8375
1	1643	8376
1	1657	8377
1	1656	8378
1	1647	8379
1	1629	8380
1	1600	8381
1	1577	8382
1	1554	8383
1	1541	8384
1	1535	8385
1	1533	8386
1	1539	8387
1	1539	8388
1	1543	8389
1	1549	8390
1	1552	8391
1	1557	8392
1	1567	8393
1	1576	8394
1	1585	8395
1	1592	8396
1	1594	8397
1	1594	8398
1	1589	8399
1	1581	8400
1	1569	8401
1	1555	8402
1	1542	8403
1	1530	8404
1	1531	8405
1	1534	8406
1	1542	8407
1	1550	8408
1	1557	8409
1	1573	8410
1	1592	8411
1	1609	8412
1	1631	8413
1	1643	8414
1	1650	8415
1	1647	8416
1	1645	8417
1	1625	8418
1	1596	8419
1	1570	8420
1	1544	8421
1	1534	8422
1	1527	8423
1	1531	8424
1	1547	8425
1	1562	8426
1	1581	8427
1	1607	8428
1	1634	8429
1	1665	8430
1	1694	8431
1	1716	8432
1	1728	8433
1	1731	8434
1	1724	8435
1	1701	8436
1	1679	8437
1	1642	8438
1	1598	8439
1	1564	8440
1	1533	8441
1	1503	8442
1	1494	8443
1	1485	8444
1	1490	8445
1	1499	8446
1	1512	8447
1	1528	8448
1	1548	8449
1	1572	8450
1	1594	8451
1	1616	8452
1	1633	8453
1	1642	8454
1	1638	8455
1	1634	8456
1	1634	8457
1	1623	8458
1	1611	8459
1	1602	8460
1	1592	8461
1	1582	8462
1	1572	8463
1	1573	8464
1	1581	8465
1	1589	8466
1	1599	8467
1	1616	8468
1	1629	8469
1	1641	8470
1	1647	8471
1	1649	8472
1	1651	8473
1	1648	8474
1	1641	8475
1	1628	8476
1	1613	8477
1	1594	8478
1	1579	8479
1	1580	8500
1	1572	8501
1	1569	8502
1	1569	8503
1	1569	8504
1	1569	8505
1	1562	8506
1	1564	8507
1	1569	8508
1	1581	8509
1	1594	8510
1	1605	8511
1	1619	8512
1	1628	8513
1	1634	8514
1	1638	8515
1	1643	8516
1	1647	8517
1	1647	8518
1	1642	8519
1	1555	8480
1	1539	8481
1	1537	8482
1	1541	8483
1	1558	8484
1	1592	8485
1	1625	8486
1	1662	8487
1	1701	8488
1	1736	8489
1	1763	8490
1	1779	8491
1	1787	8492
1	1772	8493
1	1751	8494
1	1721	8495
1	1679	8496
1	1644	8497
1	1611	8498
1	1590	8499
1	1634	8520
1	1626	8521
1	1618	8522
1	1604	8523
1	1594	8524
1	1592	8525
1	1597	8526
1	1625	8527
1	1653	8528
1	1681	8529
1	1708	8530
1	1736	8531
1	1763	8532
1	1783	8533
1	1796	8534
1	1800	8535
1	1798	8536
1	1793	8537
1	1777	8538
1	1762	8539
1	1741	8540
1	1724	8541
1	1713	8542
1	1705	8543
1	1703	8544
1	1701	8545
1	1714	8546
1	1727	8547
1	1738	8548
1	1751	8549
1	1762	8550
1	1766	8551
1	1777	8552
1	1778	8553
1	1769	8554
1	1762	8555
1	1750	8556
1	1733	8557
1	1716	8558
1	1706	8559
1	1686	8560
1	1663	8561
1	1643	8562
1	1623	8563
1	1608	8564
1	1609	8565
1	1622	8566
1	1642	8567
1	1660	8568
1	1686	8569
1	1712	8570
1	1731	8571
1	1737	8572
1	1738	8573
1	1717	8574
1	1686	8575
1	1647	8576
1	1607	8577
1	1579	8578
1	1555	8579
1	1535	8580
1	1528	8581
1	1526	8582
1	1529	8583
1	1538	8584
1	1543	8585
1	1551	8586
1	1564	8587
1	1580	8588
1	1602	8589
1	1634	8590
1	1667	8591
1	1697	8592
1	1714	8593
1	1726	8594
1	1728	8595
1	1723	8596
1	1710	8597
1	1682	8598
1	1660	8599
1	1643	8600
1	1626	8601
1	1621	8602
1	1613	8603
1	1608	8604
1	1607	8605
1	1607	8606
1	1606	8607
1	1608	8608
1	1618	8609
1	1631	8610
1	1645	8611
1	1656	8612
1	1660	8613
1	1678	8614
1	1697	8615
1	1713	8616
1	1729	8617
1	1723	8618
1	1704	8619
1	1681	8620
1	1656	8621
1	1634	8622
1	1620	8623
1	1611	8624
1	1607	8625
1	1616	8626
1	1637	8627
1	1657	8628
1	1679	8629
1	1701	8630
1	1717	8631
1	1738	8632
1	1744	8633
1	1742	8634
1	1728	8635
1	1704	8636
1	1678	8637
1	1647	8638
1	1608	8639
1	1581	8640
1	1553	8641
1	1532	8642
1	1527	8643
1	1531	8644
1	1542	8645
1	1559	8646
1	1589	8647
1	1626	8648
1	1678	8649
1	1728	8650
1	1778	8651
1	1842	8652
1	1891	8653
1	1934	8654
1	1965	8655
1	1991	8656
1	2009	8657
1	2014	8658
1	2019	8659
1	2024	8660
1	2028	8661
1	2039	8662
1	2058	8663
1	2077	8664
1	2100	8665
1	2142	8666
1	2192	8667
1	2255	8668
1	2314	8669
1	2363	8670
1	2393	8671
1	2402	8672
1	2383	8673
1	2350	8674
1	2302	8675
1	2237	8676
1	2157	8677
1	2068	8678
1	1974	8679
1	1878	8680
1	1782	8681
1	1693	8682
1	1618	8683
1	1564	8684
1	1533	8685
1	1526	8686
1	1538	8687
1	1557	8688
1	1593	8689
1	1634	8690
1	1668	8691
1	1697	8692
1	1711	8693
1	1717	8694
1	1724	8695
1	1726	8696
1	1725	8697
1	1713	8698
1	1698	8699
1	1670	8700
1	1646	8701
1	1625	8702
1	1607	8703
1	1603	8704
1	1603	8705
1	1610	8706
1	1634	8707
1	1657	8708
1	1680	8709
1	1697	8710
1	1712	8711
1	1727	8712
1	1734	8713
1	1733	8714
1	1726	8715
1	1717	8716
1	1709	8717
1	1681	8718
1	1652	8719
1	1621	8720
1	1593	8721
1	1579	8722
1	1565	8723
1	1569	8724
1	1584	8725
1	1608	8726
1	1645	8727
1	1683	8728
1	1715	8729
1	1747	8730
1	1775	8731
1	1791	8732
1	1796	8733
1	1795	8734
1	1785	8735
1	1764	8736
1	1737	8737
1	1701	8738
1	1661	8739
1	1637	8740
1	1617	8741
1	1587	8742
1	1575	8743
1	1557	8744
1	1564	8745
1	1580	8746
1	1605	8747
1	1629	8748
1	1656	8749
1	1686	8750
1	1718	8751
1	1756	8752
1	1792	8753
1	1838	8754
1	1859	8755
1	1868	8756
1	1869	8757
1	1854	8758
1	1826	8759
1	1790	8760
1	1751	8761
1	1713	8762
1	1680	8763
1	1661	8764
1	1664	8765
1	1673	8766
1	1695	8767
1	1728	8768
1	1756	8769
1	1791	8770
1	1824	8771
1	1849	8772
1	1865	8773
1	1874	8774
1	1869	8775
1	1854	8776
1	1826	8777
1	1782	8778
1	1747	8779
1	1713	8780
1	1686	8781
1	1672	8782
1	1660	8783
1	1652	8784
1	1647	8785
1	1652	8786
1	1668	8787
1	1694	8788
1	1727	8789
1	1767	8790
1	1815	8791
1	1852	8792
1	1869	8793
1	1881	8794
1	1883	8795
1	1872	8796
1	1856	8797
1	1819	8798
1	1783	8799
1	1759	8800
1	1746	8801
1	1741	8802
1	1750	8803
1	1762	8804
1	1779	8805
1	1796	8806
1	1820	8807
1	1832	8808
1	1843	8809
1	1854	8810
1	1854	8811
1	1856	8812
1	1852	8813
1	1843	8814
1	1829	8815
1	1811	8816
1	1778	8817
1	1746	8818
1	1713	8819
1	1692	8820
1	1675	8821
1	1665	8822
1	1663	8823
1	1669	8824
1	1681	8825
1	1700	8826
1	1738	8827
1	1773	8828
1	1816	8829
1	1856	8830
1	1895	8831
1	1939	8832
1	1976	8833
1	2003	8834
1	2014	8835
1	2002	8836
1	1975	8837
1	1922	8838
1	1867	8839
1	1803	8840
1	1751	8841
1	1719	8842
1	1692	8843
1	1692	8844
1	1702	8845
1	1733	8846
1	1769	8847
1	1817	8848
1	1863	8849
1	1905	8850
1	1939	8851
1	1968	8852
1	1985	8853
1	1996	8854
1	1996	8855
1	1988	8856
1	1975	8857
1	1971	8858
1	1956	8859
1	1942	8860
1	1930	8861
1	1922	8862
1	1921	8863
1	1922	8864
1	1935	8865
1	1948	8866
1	1968	8867
1	1976	8868
1	1992	8869
1	2004	8870
1	2011	8871
1	2008	8872
1	2003	8873
1	1987	8874
1	1969	8875
1	1948	8876
1	1922	8877
1	1901	8878
1	1875	8879
1	1858	8880
1	1849	8881
1	1851	8882
1	1856	8883
1	1883	8884
1	1920	8885
1	1959	8886
1	2000	8887
1	2042	8888
1	2071	8889
1	2093	8890
1	2113	8891
1	2121	8892
1	2118	8893
1	2113	8894
1	2105	8895
1	2086	8896
1	2056	8897
1	2013	8898
1	1972	8899
1	1936	8900
1	1903	8901
1	1877	8902
1	1859	8903
1	1852	8904
1	1857	8905
1	1878	8906
1	1900	8907
1	1928	8908
1	1953	8909
1	1974	8910
1	1989	8911
1	2004	8912
1	2007	8913
1	2003	8914
1	1992	8915
1	1970	8916
1	1948	8917
1	1921	8918
1	1893	8919
1	1863	8920
1	1842	8921
1	1821	8922
1	1800	8923
1	1791	8924
1	1794	8925
1	1817	8926
1	1849	8927
1	1867	8928
1	1885	8929
1	1906	8930
1	1924	8931
1	1948	8932
1	1958	8933
1	1962	8934
1	1958	8935
1	1942	8936
1	1919	8937
1	1881	8938
1	1843	8939
1	1780	8940
1	1729	8941
1	1686	8942
1	1654	8943
1	1632	8944
1	1619	8945
1	1620	8946
1	1633	8947
1	1652	8948
1	1675	8949
1	1694	8950
1	1719	8951
1	1738	8952
1	1751	8953
1	1759	8954
1	1762	8955
1	1759	8956
1	1750	8957
1	1730	8958
1	1710	8959
1	1686	8960
1	1651	8961
1	1621	8962
1	1602	8963
1	1589	8964
1	1589	8965
1	1587	8966
1	1593	8967
1	1602	8968
1	1615	8969
1	1636	8970
1	1657	8971
1	1670	8972
1	1669	8973
1	1661	8974
1	1651	8975
1	1630	8976
1	1607	8977
1	1598	8978
1	1586	8979
1	1577	8980
1	1572	8981
1	1576	8982
1	1586	8983
1	1602	8984
1	1618	8985
1	1639	8986
1	1666	8987
1	1684	8988
1	1705	8989
1	1729	8990
1	1751	8991
1	1776	8992
1	1781	8993
1	1773	8994
1	1753	8995
1	1725	8996
1	1687	8997
1	1631	8998
1	1571	8999
1	1510	9000
1	1464	9001
1	1432	9002
1	1418	9003
1	1415	9004
1	1430	9005
1	1458	9006
1	1500	9007
1	1551	9008
1	1593	9009
1	1634	9010
1	1670	9011
1	1700	9012
1	1724	9013
1	1738	9014
1	1740	9015
1	1733	9016
1	1711	9017
1	1673	9018
1	1626	9019
1	1576	9020
1	1525	9021
1	1485	9022
1	1466	9023
1	1458	9024
1	1467	9025
1	1492	9026
1	1529	9027
1	1563	9028
1	1598	9029
1	1634	9030
1	1661	9031
1	1685	9032
1	1693	9033
1	1701	9034
1	1703	9035
1	1695	9036
1	1678	9037
1	1652	9038
1	1608	9039
1	1580	9040
1	1548	9041
1	1511	9042
1	1492	9043
1	1475	9044
1	1476	9045
1	1485	9046
1	1508	9047
1	1544	9048
1	1587	9049
1	1635	9050
1	1683	9051
1	1718	9052
1	1738	9053
1	1748	9054
1	1741	9055
1	1734	9056
1	1710	9057
1	1679	9058
1	1645	9059
1	1615	9060
1	1590	9061
1	1577	9062
1	1562	9063
1	1557	9064
1	1562	9065
1	1574	9066
1	1597	9067
1	1633	9068
1	1661	9069
1	1693	9070
1	1717	9071
1	1738	9072
1	1747	9073
1	1744	9074
1	1733	9075
1	1712	9076
1	1687	9077
1	1660	9078
1	1639	9079
1	1621	9080
1	1602	9081
1	1578	9082
1	1561	9083
1	1549	9084
1	1548	9085
1	1555	9086
1	1574	9087
1	1598	9088
1	1634	9089
1	1672	9090
1	1710	9091
1	1742	9092
1	1755	9093
1	1760	9094
1	1744	9095
1	1712	9096
1	1665	9097
1	1620	9098
1	1566	9099
1	1516	9100
1	1469	9101
1	1432	9102
1	1412	9103
1	1414	9104
1	1440	9105
1	1482	9106
1	1539	9107
1	1596	9108
1	1660	9109
1	1712	9110
1	1751	9111
1	1776	9112
1	1795	9113
1	1795	9114
1	1782	9115
1	1760	9116
1	1733	9117
1	1699	9118
1	1661	9119
1	1686	9140
1	1676	9141
1	1664	9142
1	1651	9143
1	1639	9144
1	1621	9145
1	1610	9146
1	1600	9147
1	1602	9148
1	1607	9149
1	1621	9150
1	1634	9151
1	1647	9152
1	1656	9153
1	1668	9154
1	1685	9155
1	1700	9156
1	1714	9157
1	1728	9158
1	1726	9159
1	1713	9160
1	1698	9161
1	1680	9162
1	1659	9163
1	1643	9164
1	1625	9165
1	1618	9166
1	1621	9167
1	1625	9168
1	1633	9169
1	1649	9170
1	1670	9171
1	1688	9172
1	1708	9173
1	1713	9174
1	1712	9175
1	1711	9176
1	1698	9177
1	1684	9178
1	1663	9179
1	1638	9180
1	1615	9181
1	1593	9182
1	1569	9183
1	1553	9184
1	1539	9185
1	1537	9186
1	1548	9187
1	1576	9188
1	1608	9189
1	1649	9190
1	1686	9191
1	1711	9192
1	1716	9193
1	1714	9194
1	1701	9195
1	1687	9196
1	1674	9197
1	1651	9198
1	1633	9199
1	1616	9200
1	1598	9201
1	1587	9202
1	1587	9203
1	1591	9204
1	1605	9205
1	1624	9206
1	1646	9207
1	1670	9208
1	1695	9209
1	1719	9210
1	1744	9211
1	1764	9212
1	1776	9213
1	1783	9214
1	1778	9215
1	1755	9216
1	1719	9217
1	1686	9218
1	1655	9219
1	1621	9120
1	1583	9121
1	1555	9122
1	1533	9123
1	1525	9124
1	1523	9125
1	1530	9126
1	1553	9127
1	1579	9128
1	1596	9129
1	1611	9130
1	1628	9131
1	1645	9132
1	1665	9133
1	1686	9134
1	1698	9135
1	1703	9136
1	1708	9137
1	1701	9138
1	1695	9139
1	1633	9220
1	1616	9221
1	1607	9222
1	1602	9223
1	1604	9224
1	1607	9225
1	1615	9226
1	1633	9227
1	1647	9228
1	1667	9229
1	1685	9230
1	1694	9231
1	1699	9232
1	1703	9233
1	1697	9234
1	1683	9235
1	1656	9236
1	1624	9237
1	1598	9238
1	1577	9239
1	1566	9240
1	1555	9241
1	1551	9242
1	1557	9243
1	1574	9244
1	1592	9245
1	1607	9246
1	1622	9247
1	1638	9248
1	1654	9249
1	1669	9250
1	1697	9251
1	1721	9252
1	1747	9253
1	1777	9254
1	1800	9255
1	1814	9256
1	1814	9257
1	1790	9258
1	1764	9259
1	1738	9260
1	1712	9261
1	1688	9262
1	1673	9263
1	1656	9264
1	1646	9265
1	1647	9266
1	1651	9267
1	1662	9268
1	1679	9269
1	1696	9270
1	1704	9271
1	1701	9272
1	1693	9273
1	1685	9274
1	1673	9275
1	1655	9276
1	1632	9277
1	1613	9278
1	1602	9279
1	1595	9280
1	1595	9281
1	1602	9282
1	1616	9283
1	1634	9284
1	1648	9285
1	1673	9286
1	1701	9287
1	1725	9288
1	1751	9289
1	1780	9290
1	1814	9291
1	1835	9292
1	1854	9293
1	1853	9294
1	1843	9295
1	1824	9296
1	1800	9297
1	1768	9298
1	1740	9299
1	1711	9300
1	1682	9301
1	1660	9302
1	1646	9303
1	1633	9304
1	1628	9305
1	1625	9306
1	1629	9307
1	1642	9308
1	1656	9309
1	1674	9310
1	1694	9311
1	1712	9312
1	1724	9313
1	1731	9314
1	1730	9315
1	1719	9316
1	1701	9317
1	1672	9318
1	1644	9319
1	1612	9320
1	1587	9321
1	1572	9322
1	1567	9323
1	1572	9324
1	1581	9325
1	1605	9326
1	1634	9327
1	1671	9328
1	1709	9329
1	1742	9330
1	1770	9331
1	1790	9332
1	1783	9333
1	1764	9334
1	1724	9335
1	1680	9336
1	1631	9337
1	1582	9338
1	1529	9339
1	1497	9340
1	1474	9341
1	1451	9342
1	1454	9343
1	1461	9344
1	1476	9345
1	1495	9346
1	1523	9347
1	1559	9348
1	1603	9349
1	1644	9350
1	1682	9351
1	1708	9352
1	1726	9353
1	1738	9354
1	1738	9355
1	1738	9356
1	1718	9357
1	1699	9358
1	1679	9359
1	1660	9360
1	1647	9361
1	1634	9362
1	1618	9363
1	1610	9364
1	1623	9365
1	1638	9366
1	1663	9367
1	1697	9368
1	1721	9369
1	1738	9370
1	1743	9371
1	1742	9372
1	1733	9373
1	1710	9374
1	1674	9375
1	1638	9376
1	1605	9377
1	1562	9378
1	1524	9379
1	1772	9400
1	1791	9401
1	1817	9402
1	1845	9403
1	1882	9404
1	1926	9405
1	1978	9406
1	2041	9407
1	2101	9408
1	2161	9409
1	2220	9410
1	2274	9411
1	2314	9412
1	2358	9413
1	2375	9414
1	2382	9415
1	2377	9416
1	2355	9417
1	2330	9418
1	2305	9419
1	1490	9380
1	1466	9381
1	1450	9382
1	1449	9383
1	1450	9384
1	1463	9385
1	1487	9386
1	1515	9387
1	1544	9388
1	1576	9389
1	1602	9390
1	1615	9391
1	1623	9392
1	1625	9393
1	1639	9394
1	1662	9395
1	1688	9396
1	1710	9397
1	1736	9398
1	1755	9399
1	2277	9420
1	2248	9421
1	2219	9422
1	2183	9423
1	2143	9424
1	2097	9425
1	2048	9426
1	1995	9427
1	1947	9428
1	1891	9429
1	1837	9430
1	1783	9431
1	1737	9432
1	1695	9433
1	1654	9434
1	1612	9435
1	1580	9436
1	1552	9437
1	1525	9438
1	1502	9439
1	1479	9440
1	1463	9441
1	1450	9442
1	1452	9443
1	1461	9444
1	1467	9445
1	1490	9446
1	1513	9447
1	1544	9448
1	1581	9449
1	1615	9450
1	1647	9451
1	1669	9452
1	1679	9453
1	1685	9454
1	1687	9455
1	1677	9456
1	1660	9457
1	1641	9458
1	1613	9459
1	1589	9460
1	1569	9461
1	1556	9462
1	1555	9463
1	1561	9464
1	1580	9465
1	1603	9466
1	1634	9467
1	1664	9468
1	1697	9469
1	1721	9470
1	1740	9471
1	1753	9472
1	1764	9473
1	1759	9474
1	1744	9475
1	1723	9476
1	1698	9477
1	1670	9478
1	1637	9479
1	1608	9480
1	1584	9481
1	1564	9482
1	1542	9483
1	1530	9484
1	1529	9485
1	1534	9486
1	1554	9487
1	1589	9488
1	1634	9489
1	1686	9490
1	1737	9491
1	1774	9492
1	1802	9493
1	1817	9494
1	1809	9495
1	1783	9496
1	1754	9497
1	1712	9498
1	1669	9499
1	1621	9500
1	1573	9501
1	1527	9502
1	1498	9503
1	1476	9504
1	1473	9505
1	1491	9506
1	1531	9507
1	1584	9508
1	1638	9509
1	1695	9510
1	1737	9511
1	1764	9512
1	1770	9513
1	1768	9514
1	1759	9515
1	1744	9516
1	1729	9517
1	1718	9518
1	1704	9519
1	1688	9520
1	1678	9521
1	1667	9522
1	1667	9523
1	1677	9524
1	1688	9525
1	1710	9526
1	1726	9527
1	1741	9528
1	1756	9529
1	1770	9530
1	1773	9531
1	1767	9532
1	1760	9533
1	1734	9534
1	1703	9535
1	1671	9536
1	1644	9537
1	1620	9538
1	1605	9539
1	1607	9540
1	1612	9541
1	1633	9542
1	1646	9543
1	1664	9544
1	1684	9545
1	1701	9546
1	1719	9547
1	1739	9548
1	1764	9549
1	1789	9550
1	1819	9551
1	1835	9552
1	1832	9553
1	1823	9554
1	1799	9555
1	1773	9556
1	1742	9557
1	1703	9558
1	1672	9559
1	1642	9560
1	1616	9561
1	1607	9562
1	1613	9563
1	1623	9564
1	1638	9565
1	1660	9566
1	1688	9567
1	1723	9568
1	1755	9569
1	1788	9570
1	1817	9571
1	1842	9572
1	1845	9573
1	1843	9574
1	1830	9575
1	1803	9576
1	1777	9577
1	1752	9578
1	1715	9579
1	1679	9580
1	1649	9581
1	1638	9582
1	1647	9583
1	1667	9584
1	1702	9585
1	1740	9586
1	1779	9587
1	1809	9588
1	1834	9589
1	1851	9590
1	1860	9591
1	1865	9592
1	1874	9593
1	1872	9594
1	1868	9595
1	1856	9596
1	1842	9597
1	1818	9598
1	1796	9599
1	1783	9600
1	1773	9601
1	1769	9602
1	1776	9603
1	1783	9604
1	1796	9605
1	1827	9606
1	1854	9607
1	1884	9608
1	1908	9609
1	1931	9610
1	1948	9611
1	1958	9612
1	1956	9613
1	1948	9614
1	1931	9615
1	1910	9616
1	1887	9617
1	1856	9618
1	1828	9619
1	1800	9620
1	1782	9621
1	1773	9622
1	1779	9623
1	1792	9624
1	1817	9625
1	1843	9626
1	1873	9627
1	1908	9628
1	1944	9629
1	1972	9630
1	1991	9631
1	2008	9632
1	2010	9633
1	2006	9634
1	1998	9635
1	1980	9636
1	1958	9637
1	1931	9638
1	1890	9639
1	1872	9640
1	1854	9641
1	1852	9642
1	1867	9643
1	1874	9644
1	1895	9645
1	1907	9646
1	1917	9647
1	1926	9648
1	1943	9649
1	1958	9650
1	1971	9651
1	1986	9652
1	1998	9653
1	2003	9654
1	2000	9655
1	1993	9656
1	1963	9657
1	1922	9658
1	1873	9659
1	1761	9680
1	1737	9681
1	1711	9682
1	1700	9683
1	1685	9684
1	1670	9685
1	1667	9686
1	1680	9687
1	1700	9688
1	1721	9689
1	1741	9690
1	1759	9691
1	1767	9692
1	1764	9693
1	1763	9694
1	1751	9695
1	1734	9696
1	1706	9697
1	1678	9698
1	1641	9699
1	1836	9660
1	1796	9661
1	1764	9662
1	1733	9663
1	1718	9664
1	1719	9665
1	1735	9666
1	1751	9667
1	1778	9668
1	1813	9669
1	1844	9670
1	1871	9671
1	1894	9672
1	1897	9673
1	1897	9674
1	1893	9675
1	1869	9676
1	1845	9677
1	1817	9678
1	1787	9679
1	1606	9700
1	1574	9701
1	1547	9702
1	1526	9703
1	1507	9704
1	1503	9705
1	1508	9706
1	1528	9707
1	1549	9708
1	1580	9709
1	1604	9710
1	1629	9711
1	1644	9712
1	1661	9713
1	1668	9714
1	1665	9715
1	1659	9716
1	1645	9717
1	1623	9718
1	1603	9719
1	1581	9720
1	1559	9721
1	1537	9722
1	1511	9723
1	1494	9724
1	1488	9725
1	1492	9726
1	1507	9727
1	1536	9728
1	1560	9729
1	1589	9730
1	1607	9731
1	1620	9732
1	1629	9733
1	1634	9734
1	1633	9735
1	1631	9736
1	1622	9737
1	1605	9738
1	1583	9739
1	1557	9740
1	1531	9741
1	1508	9742
1	1501	9743
1	1490	9744
1	1485	9745
1	1499	9746
1	1516	9747
1	1533	9748
1	1557	9749
1	1587	9750
1	1621	9751
1	1657	9752
1	1688	9753
1	1716	9754
1	1737	9755
1	1743	9756
1	1738	9757
1	1718	9758
1	1697	9759
1	1659	9760
1	1629	9761
1	1591	9762
1	1561	9763
1	1542	9764
1	1537	9765
1	1542	9766
1	1553	9767
1	1563	9768
1	1581	9769
1	1606	9770
1	1625	9771
1	1638	9772
1	1647	9773
1	1645	9774
1	1636	9775
1	1621	9776
1	1598	9777
1	1567	9778
1	1530	9779
1	1499	9780
1	1474	9781
1	1466	9782
1	1472	9783
1	1490	9784
1	1517	9785
1	1550	9786
1	1585	9787
1	1623	9788
1	1656	9789
1	1684	9790
1	1705	9791
1	1724	9792
1	1731	9793
1	1736	9794
1	1731	9795
1	1728	9796
1	1723	9797
1	1711	9798
1	1698	9799
1	1686	9800
1	1670	9801
1	1652	9802
1	1638	9803
1	1625	9804
1	1620	9805
1	1621	9806
1	1634	9807
1	1645	9808
1	1656	9809
1	1671	9810
1	1686	9811
1	1705	9812
1	1713	9813
1	1715	9814
1	1712	9815
1	1704	9816
1	1687	9817
1	1674	9818
1	1652	9819
1	1660	9840
1	1634	9841
1	1611	9842
1	1598	9843
1	1603	9844
1	1616	9845
1	1634	9846
1	1659	9847
1	1679	9848
1	1693	9849
1	1709	9850
1	1727	9851
1	1735	9852
1	1738	9853
1	1751	9854
1	1764	9855
1	1778	9856
1	1782	9857
1	1775	9858
1	1764	9859
1	1633	9820
1	1610	9821
1	1605	9822
1	1603	9823
1	1611	9824
1	1631	9825
1	1657	9826
1	1690	9827
1	1725	9828
1	1761	9829
1	1788	9830
1	1803	9831
1	1818	9832
1	1829	9833
1	1823	9834
1	1798	9835
1	1770	9836
1	1738	9837
1	1711	9838
1	1680	9839
1	1751	9860
1	1742	9861
1	1733	9862
1	1725	9863
1	1712	9864
1	1714	9865
1	1727	9866
1	1750	9867
1	1775	9868
1	1803	9869
1	1831	9870
1	1851	9871
1	1861	9872
1	1858	9873
1	1850	9874
1	1836	9875
1	1817	9876
1	1792	9877
1	1777	9878
1	1754	9879
1	1740	9880
1	1738	9881
1	1737	9882
1	1738	9883
1	1746	9884
1	1755	9885
1	1777	9886
1	1802	9887
1	1835	9888
1	1859	9889
1	1878	9890
1	1891	9891
1	1895	9892
1	1893	9893
1	1870	9894
1	1844	9895
1	1823	9896
1	1791	9897
1	1776	9898
1	1760	9899
1	1742	9900
1	1738	9901
1	1738	9902
1	1741	9903
1	1752	9904
1	1769	9905
1	1798	9906
1	1832	9907
1	1862	9908
1	1873	9909
1	1882	9910
1	1893	9911
1	1904	9912
1	1917	9913
1	1922	9914
1	1922	9915
1	1907	9916
1	1883	9917
1	1849	9918
1	1817	9919
1	1788	9920
1	1764	9921
1	1754	9922
1	1760	9923
1	1769	9924
1	1791	9925
1	1826	9926
1	1859	9927
1	1888	9928
1	1908	9929
1	1922	9930
1	1934	9931
1	1948	9932
1	1948	9933
1	1945	9934
1	1931	9935
1	1909	9936
1	1890	9937
1	1871	9938
1	1840	9939
1	1817	9940
1	1803	9941
1	1791	9942
1	1792	9943
1	1811	9944
1	1837	9945
1	1863	9946
1	1900	9947
1	1947	9948
1	1989	9949
1	2030	9950
1	2061	9951
1	2076	9952
1	2070	9953
1	2052	9954
1	2024	9955
1	1994	9956
1	1963	9957
1	1935	9958
1	1908	9959
1	1886	9960
1	1871	9961
1	1869	9962
1	1867	9963
1	1874	9964
1	1896	9965
1	1933	9966
1	1974	9967
1	2024	9968
1	2057	9969
1	2088	9970
1	2111	9971
1	2124	9972
1	2124	9973
1	2114	9974
1	2100	9975
1	2079	9976
1	2053	9977
1	2021	9978
1	1996	9979
1	1974	9980
1	1958	9981
1	1950	9982
1	1961	9983
1	1970	9984
1	1986	9985
1	2006	9986
1	2030	9987
1	2062	9988
1	2099	9989
1	2131	9990
1	2153	9991
1	2159	9992
1	2148	9993
1	2132	9994
1	2111	9995
1	2081	9996
1	2053	9997
1	2034	9998
1	2011	9999
1	1995	10000
1	1987	10001
1	1985	10002
1	1987	10003
1	1987	10004
1	1989	10005
1	2001	10006
1	2021	10007
1	2036	10008
1	2057	10009
1	2076	10010
1	2086	10011
1	2093	10012
1	2104	10013
1	2105	10014
1	2105	10015
1	2105	10016
1	2105	10017
1	2105	10018
1	2105	10019
1	2102	10020
1	2093	10021
1	2080	10022
1	2061	10023
1	2052	10024
1	2052	10025
1	2060	10026
1	2070	10027
1	2089	10028
1	2104	10029
1	2115	10030
1	2120	10031
1	2125	10032
1	2125	10033
1	2129	10034
1	2132	10035
1	2137	10036
1	2139	10037
1	2120	10038
1	2093	10039
1	2061	10040
1	2028	10041
1	2007	10042
1	2012	10043
1	2023	10044
1	2030	10045
1	2064	10046
1	2094	10047
1	2127	10048
1	2160	10049
1	2192	10050
1	2215	10051
1	2236	10052
1	2237	10053
1	2236	10054
1	2215	10055
1	2188	10056
1	2158	10057
1	2131	10058
1	2104	10059
1	2082	10060
1	2075	10061
1	2058	10062
1	2052	10063
1	2049	10064
1	2052	10065
1	2065	10066
1	2086	10067
1	2107	10068
1	2137	10069
1	2170	10070
1	2195	10071
1	2219	10072
1	2243	10073
1	2245	10074
1	2236	10075
1	2210	10076
1	2183	10077
1	2148	10078
1	2115	10079
1	2084	10080
1	2058	10081
1	2050	10082
1	2039	10083
1	2050	10084
1	2066	10085
1	2081	10086
1	2102	10087
1	2132	10088
1	2162	10089
1	2193	10090
1	2222	10091
1	2253	10092
1	2269	10093
1	2273	10094
1	2268	10095
1	2258	10096
1	2237	10097
1	2202	10098
1	2180	10099
1	2166	10100
