#Date:= 2024-10-08T16:10:57.940213
#Sampling Rate(Hz):= 1000
#Labels:= LOD	ECG	TS
1	128	20
1	128	21
1	128	22
1	128	23
1	128	24
1	128	25
1	128	26
1	128	27
1	128	28
1	128	29
1	128	30
1	128	31
1	128	32
1	128	33
1	128	34
1	128	35
1	128	36
1	128	37
1	128	38
1	128	39
1	128	40
1	128	41
1	128	42
1	128	43
1	128	44
1	128	45
1	128	46
1	128	47
1	128	48
1	128	49
1	128	50
1	128	51
1	128	52
1	128	53
1	128	54
1	128	55
1	128	56
1	128	57
1	128	58
1	128	59
1	128	60
1	128	61
1	128	62
1	128	63
1	128	64
1	128	65
1	128	66
1	128	67
1	128	68
1	128	69
1	128	70
1	128	71
1	128	72
1	128	73
1	128	74
1	128	75
1	128	76
1	128	77
1	128	78
1	128	79
1	128	80
1	128	81
1	128	82
1	128	83
1	128	84
1	128	85
1	128	86
1	128	87
1	128	88
1	128	89
1	128	90
1	128	91
1	128	92
1	128	93
1	128	94
1	128	95
1	128	96
1	128	97
1	128	98
1	128	99
1	128	100
1	128	101
1	128	102
1	128	103
1	128	104
1	128	105
1	128	106
1	128	107
1	128	108
1	128	109
1	128	110
1	128	111
1	128	112
1	128	113
1	128	114
1	128	115
1	128	116
1	128	117
1	128	118
1	128	119
1	128	120
1	128	121
1	128	122
1	128	123
1	128	124
1	128	125
1	128	126
1	128	127
1	128	128
1	128	129
1	128	130
1	128	131
1	128	132
1	128	133
1	128	134
1	128	135
1	128	136
1	128	137
1	128	138
1	128	139
1	128	140
1	128	141
1	128	142
1	128	143
1	128	144
1	128	145
1	464	146
1	1579	147
1	3027	148
1	3130	149
1	3130	150
1	3130	151
1	3130	152
1	3130	153
1	3130	154
1	3130	155
1	3130	156
1	3130	157
1	3130	158
1	3130	159
1	3130	160
1	3130	161
1	3130	162
1	3130	163
1	3130	164
1	3130	165
1	3130	166
1	3130	167
1	3130	168
1	3130	169
1	3130	170
1	3130	171
1	3130	172
1	3130	173
1	3130	174
1	3130	175
1	3130	176
1	3130	177
1	3130	178
1	3130	179
1	3130	180
1	3130	181
1	3130	182
1	3130	183
1	3130	184
1	3130	185
1	3130	186
1	3130	187
1	3130	188
1	3130	189
1	3130	190
1	3130	191
1	3130	192
1	3130	193
1	3130	194
1	3130	195
1	3130	196
1	3130	197
1	3130	198
1	3130	199
1	3130	200
1	3130	201
1	3130	202
1	3130	203
1	3130	204
1	3130	205
1	3130	206
1	3130	207
1	3130	208
1	3130	209
1	3130	210
1	3130	211
1	3130	212
1	3130	213
1	3130	214
1	3130	215
1	3130	216
1	3130	217
1	3130	218
1	3130	219
1	3130	220
1	3130	221
1	3130	222
1	3130	223
1	3130	224
1	3130	225
1	3130	226
1	3130	227
1	3130	228
1	3130	229
1	3130	230
1	3130	231
1	3130	232
1	3130	233
1	3130	234
1	3130	235
1	3130	236
1	3130	237
1	3130	238
1	3130	239
1	3130	240
1	3130	241
1	3130	242
1	3130	243
1	3130	244
1	3130	245
1	3130	246
1	3130	247
1	3130	248
1	3130	249
1	3130	250
1	3130	251
1	3130	252
1	3130	253
1	3130	254
1	3130	255
1	3130	256
1	3130	257
1	3130	258
1	3130	259
1	3130	260
1	3130	261
1	3130	262
1	3130	263
1	3130	264
1	3130	265
1	3130	266
1	3130	267
1	3130	268
1	3130	269
1	3130	270
1	3130	271
1	3130	272
1	3130	273
1	3130	274
1	3130	275
1	3130	276
1	3130	277
1	3130	278
1	3130	279
1	3130	280
1	3130	281
1	3130	282
1	3130	283
1	3130	284
1	3130	285
1	3130	286
1	3130	287
1	3130	288
1	3130	289
1	3130	290
1	3130	291
1	3130	292
1	3130	293
1	3130	294
1	3130	295
1	3130	296
1	3130	297
1	3130	298
1	3130	299
1	3130	300
1	3130	301
1	3130	302
1	3130	303
1	3130	304
1	3130	305
1	3130	306
1	3130	307
1	3130	308
1	3130	309
1	3130	310
1	3130	311
1	3130	312
1	3130	313
1	3130	314
1	3130	315
1	3130	316
1	3130	317
1	3130	318
1	3130	319
1	3130	320
1	3130	321
1	3130	322
1	3130	323
1	3130	324
1	3130	325
1	3130	326
1	3130	327
1	3130	328
1	3130	329
1	3130	330
1	3130	331
1	3130	332
1	3130	333
1	3130	334
1	3130	335
1	3130	336
1	3130	337
1	3130	338
1	3130	339
1	3130	340
1	3130	341
1	3130	342
1	3130	343
1	3130	344
1	3130	345
1	3130	346
1	3130	347
1	3130	348
1	3130	349
1	3130	350
1	3130	351
1	3130	352
1	3130	353
1	3130	354
1	3130	355
1	3130	356
1	3130	357
1	3130	358
1	3130	359
1	3130	360
1	3130	361
1	3130	362
1	3130	363
1	3130	364
1	3130	365
1	3130	366
1	3130	367
1	3130	368
1	3130	369
1	3130	370
1	3130	371
1	3130	372
1	3130	373
1	3130	374
1	3130	375
1	3130	376
1	3130	377
1	3130	378
1	3130	379
1	3130	400
1	3130	401
1	3130	402
1	3130	403
1	3130	404
1	3130	405
1	3130	406
1	3130	407
1	3130	408
1	3130	409
1	3130	410
1	3130	411
1	3130	412
1	3130	413
1	3130	414
1	3130	415
1	3130	416
1	3130	417
1	3130	418
1	3130	419
1	3130	380
1	3130	381
1	3130	382
1	3130	383
1	3130	384
1	3130	385
1	3130	386
1	3130	387
1	3130	388
1	3130	389
1	3130	390
1	3130	391
1	3130	392
1	3130	393
1	3130	394
1	3130	395
1	3130	396
1	3130	397
1	3130	398
1	3130	399
1	3130	420
1	3130	421
1	3130	422
1	3130	423
1	3130	424
1	3130	425
1	3130	426
1	3130	427
1	3130	428
1	3130	429
1	3130	430
1	3130	431
1	3130	432
1	3130	433
1	3130	434
1	3130	435
1	3130	436
1	3130	437
1	3130	438
1	3130	439
1	3130	460
1	3130	461
1	3130	462
1	3130	463
1	3130	464
1	3130	465
1	3130	466
1	3130	467
1	3130	468
1	3130	469
1	3130	470
1	3130	471
1	3130	472
1	3130	473
1	3130	474
1	3130	475
1	3130	476
1	3130	477
1	3130	478
1	3130	479
1	3130	440
1	3130	441
1	3130	442
1	3130	443
1	3130	444
1	3130	445
1	3130	446
1	3130	447
1	3130	448
1	3130	449
1	3130	450
1	3130	451
1	3130	452
1	3130	453
1	3130	454
1	3130	455
1	3130	456
1	3130	457
1	3130	458
1	3130	459
1	3130	480
1	3130	481
1	3130	482
1	3130	483
1	3130	484
1	3130	485
1	3130	486
1	3130	487
1	3130	488
1	3130	489
1	3130	490
1	3130	491
1	3130	492
1	3130	493
1	3130	494
1	3130	495
1	3130	496
1	3130	497
1	3130	498
1	3130	499
1	3130	500
1	3130	501
1	3130	502
1	3130	503
1	3130	504
1	3130	505
1	3130	506
1	3130	507
1	3130	508
1	3130	509
1	3130	510
1	3130	511
1	3130	512
1	3130	513
1	3130	514
1	3130	515
1	3130	516
1	3130	517
1	3130	518
1	3130	519
1	3130	540
1	3130	541
1	3130	542
1	3130	543
1	3130	544
1	3130	545
1	3130	546
1	3130	547
1	3130	548
1	3130	549
1	3130	550
1	3130	551
1	3130	552
1	3130	553
1	3130	554
1	3130	555
1	3130	556
1	3130	557
1	3130	558
1	3130	559
1	3130	520
1	3130	521
1	3130	522
1	3130	523
1	3130	524
1	3130	525
1	3130	526
1	3130	527
1	3130	528
1	3130	529
1	3130	530
1	3130	531
1	3130	532
1	3130	533
1	3130	534
1	3130	535
1	3130	536
1	3130	537
1	3130	538
1	3130	539
1	3130	560
1	3130	561
1	3130	562
1	3130	563
1	3130	564
1	3130	565
1	3130	566
1	3130	567
1	3130	568
1	3130	569
1	3130	570
1	3130	571
1	3130	572
1	3130	573
1	3130	574
1	3130	575
1	3130	576
1	3130	577
1	3130	578
1	3130	579
1	3130	580
1	3130	581
1	3130	582
1	3130	583
1	3130	584
1	3130	585
1	3130	586
1	3130	587
1	3130	588
1	3130	589
1	3130	590
1	3130	591
1	3130	592
1	3130	593
1	3130	594
1	3130	595
1	3130	596
1	3130	597
1	3130	598
1	3130	599
1	3130	600
1	3130	601
1	3130	602
1	3130	603
1	3130	604
1	3130	605
1	3130	606
1	3130	607
1	3130	608
1	3130	609
1	3130	610
1	3130	611
1	3130	612
1	3130	613
1	3130	614
1	3130	615
1	3130	616
1	3130	617
1	3130	618
1	3126	619
1	3091	620
1	3052	621
1	3007	622
1	2974	623
1	2946	624
1	2925	625
1	2903	626
1	2885	627
1	2877	628
1	2860	629
1	2851	630
1	2842	631
1	2826	632
1	2813	633
1	2803	634
1	2795	635
1	2784	636
1	2775	637
1	2768	638
1	2774	639
1	2785	640
1	2798	641
1	2802	642
1	2801	643
1	2798	644
1	2799	645
1	2788	646
1	2789	647
1	2786	648
1	2779	649
1	2768	650
1	2760	651
1	2749	652
1	2735	653
1	2726	654
1	2715	655
1	2706	656
1	2691	657
1	2677	658
1	2658	659
1	2644	660
1	2627	661
1	2611	662
1	2595	663
1	2583	664
1	2579	665
1	2574	666
1	2576	667
1	2580	668
1	2581	669
1	2591	670
1	2591	671
1	2581	672
1	2572	673
1	2558	674
1	2543	675
1	2535	676
1	2540	677
1	2555	678
1	2568	679
1	2570	680
1	2561	681
1	2543	682
1	2515	683
1	2496	684
1	2480	685
1	2471	686
1	2471	687
1	2484	688
1	2485	689
1	2492	690
1	2492	691
1	2485	692
1	2474	693
1	2468	694
1	2454	695
1	2449	696
1	2445	697
1	2432	698
1	2424	699
1	2421	700
1	2412	701
1	2404	702
1	2404	703
1	2397	704
1	2399	705
1	2402	706
1	2404	707
1	2404	708
1	2405	709
1	2404	710
1	2407	711
1	2413	712
1	2401	713
1	2392	714
1	2380	715
1	2367	716
1	2352	717
1	2341	718
1	2327	719
1	2210	740
1	2220	741
1	2232	742
1	2230	743
1	2235	744
1	2233	745
1	2222	746
1	2204	747
1	2183	748
1	2158	749
1	2127	750
1	2102	751
1	2090	752
1	2078	753
1	2069	754
1	2067	755
1	2063	756
1	2052	757
1	2031	758
1	2022	759
1	2307	740
1	2283	741
1	2268	742
1	2260	743
1	2262	744
1	2264	745
1	2263	746
1	2257	747
1	2246	748
1	2243	749
1	2248	750
1	2252	751
1	2253	752
1	2243	753
1	2238	754
1	2217	755
1	2197	756
1	2183	757
1	2185	758
1	2197	759
1	2017	760
1	2016	761
1	2013	762
1	2012	763
1	1999	764
1	1985	765
1	1975	766
1	1970	767
1	1955	768
1	1937	769
1	1922	770
1	1901	771
1	1883	772
1	1858	773
1	1843	774
1	1830	775
1	1817	776
1	1796	777
1	1773	778
1	1754	779
1	1743	780
1	1741	781
1	1742	782
1	1740	783
1	1738	784
1	1734	785
1	1731	786
1	1726	787
1	1710	788
1	1695	789
1	1686	790
1	1677	791
1	1671	792
1	1665	793
1	1656	794
1	1639	795
1	1633	796
1	1620	797
1	1607	798
1	1593	799
1	1592	800
1	1595	801
1	1605	802
1	1607	803
1	1607	804
1	1605	805
1	1602	806
1	1594	807
1	1593	808
1	1580	809
1	1565	810
1	1555	811
1	1550	812
1	1549	813
1	1544	814
1	1536	815
1	1526	816
1	1510	817
1	1485	818
1	1463	819
1	1230	840
1	1220	841
1	1222	842
1	1216	843
1	1215	844
1	1227	845
1	1238	846
1	1253	847
1	1266	848
1	1280	849
1	1293	850
1	1298	851
1	1299	852
1	1305	853
1	1304	854
1	1304	855
1	1306	856
1	1310	857
1	1305	858
1	1294	859
1	1445	820
1	1428	821
1	1423	822
1	1424	823
1	1428	824
1	1440	825
1	1453	826
1	1456	827
1	1444	828
1	1409	829
1	1376	830
1	1363	831
1	1360	832
1	1359	833
1	1355	834
1	1342	835
1	1320	836
1	1297	837
1	1274	838
1	1251	839
1	1278	860
1	1258	861
1	1240	862
1	1219	863
1	1200	864
1	1181	865
1	1171	866
1	1162	867
1	1162	868
1	1158	869
1	1152	870
1	1152	871
1	1153	872
1	1152	873
1	1158	874
1	1160	875
1	1158	876
1	1158	877
1	1161	878
1	1162	879
1	1161	880
1	1152	881
1	1142	882
1	1138	883
1	1134	884
1	1125	885
1	1123	886
1	1123	887
1	1121	888
1	1123	889
1	1128	890
1	1136	891
1	1136	892
1	1127	893
1	1113	894
1	1098	895
1	1080	896
1	1058	897
1	1044	898
1	1031	899
1	1018	900
1	1009	901
1	1005	902
1	1004	903
1	1002	904
1	994	905
1	984	906
1	977	907
1	962	908
1	953	909
1	953	910
1	952	911
1	953	912
1	965	913
1	981	914
1	993	915
1	999	916
1	1003	917
1	1003	918
1	1006	919
1	994	940
1	992	941
1	988	942
1	979	943
1	970	944
1	954	945
1	948	946
1	944	947
1	935	948
1	924	949
1	913	950
1	897	951
1	883	952
1	870	953
1	869	954
1	872	955
1	882	956
1	898	957
1	916	958
1	932	959
1	945	960
1	948	961
1	947	962
1	944	963
1	935	964
1	927	965
1	919	966
1	915	967
1	905	968
1	891	969
1	875	970
1	871	971
1	871	972
1	874	973
1	880	974
1	888	975
1	895	976
1	900	977
1	904	978
1	906	979
1	910	980
1	912	981
1	913	982
1	913	983
1	911	984
1	914	985
1	914	986
1	914	987
1	919	988
1	916	989
1	913	990
1	902	991
1	888	992
1	870	993
1	853	994
1	848	995
1	847	996
1	847	997
1	848	998
1	848	999
1	1016	920
1	1018	921
1	1020	922
1	1026	923
1	1033	924
1	1043	925
1	1042	926
1	1031	927
1	1021	928
1	1005	929
1	1001	930
1	1005	931
1	1005	932
1	995	933
1	983	934
1	977	935
1	977	936
1	979	937
1	988	938
1	995	939
1	846	1000
1	848	1001
1	849	1002
1	855	1003
1	861	1004
1	867	1005
1	871	1006
1	879	1007
1	898	1008
1	913	1009
1	927	1010
1	937	1011
1	950	1012
1	952	1013
1	950	1014
1	942	1015
1	930	1016
1	924	1017
1	921	1018
1	913	1019
1	902	1020
1	888	1021
1	870	1022
1	851	1023
1	837	1024
1	829	1025
1	826	1026
1	823	1027
1	822	1028
1	822	1029
1	825	1030
1	824	1031
1	827	1032
1	827	1033
1	824	1034
1	821	1035
1	809	1036
1	809	1037
1	808	1038
1	809	1039
1	811	1040
1	813	1041
1	821	1042
1	826	1043
1	839	1044
1	853	1045
1	869	1046
1	886	1047
1	887	1048
1	895	1049
1	900	1050
1	903	1051
1	916	1052
1	929	1053
1	937	1054
1	936	1055
1	929	1056
1	927	1057
1	926	1058
1	927	1059
1	932	1060
1	937	1061
1	932	1062
1	927	1063
1	927	1064
1	928	1065
1	937	1066
1	950	1067
1	956	1068
1	961	1069
1	954	1070
1	945	1071
1	932	1072
1	918	1073
1	906	1074
1	905	1075
1	906	1076
1	911	1077
1	921	1078
1	927	1079
1	932	1080
1	927	1081
1	919	1082
1	912	1083
1	901	1084
1	895	1085
1	888	1086
1	887	1087
1	886	1088
1	882	1089
1	878	1090
1	873	1091
1	865	1092
1	860	1093
1	848	1094
1	831	1095
1	817	1096
1	806	1097
1	796	1098
1	787	1099
1	787	1100
1	788	1101
1	794	1102
1	792	1103
1	793	1104
1	794	1105
1	796	1106
1	796	1107
1	801	1108
1	798	1109
1	805	1110
1	811	1111
1	815	1112
1	810	1113
1	808	1114
1	805	1115
1	803	1116
1	801	1117
1	795	1118
1	795	1119
1	800	1140
1	801	1141
1	810	1142
1	816	1143
1	823	1144
1	840	1145
1	856	1146
1	867	1147
1	872	1148
1	880	1149
1	891	1150
1	896	1151
1	891	1152
1	887	1153
1	874	1154
1	861	1155
1	846	1156
1	831	1157
1	819	1158
1	808	1159
1	797	1120
1	808	1121
1	815	1122
1	819	1123
1	823	1124
1	829	1125
1	825	1126
1	821	1127
1	814	1128
1	806	1129
1	801	1130
1	806	1131
1	808	1132
1	809	1133
1	809	1134
1	805	1135
1	797	1136
1	795	1137
1	797	1138
1	798	1139
1	801	1160
1	796	1161
1	793	1162
1	796	1163
1	801	1164
1	811	1165
1	824	1166
1	846	1167
1	861	1168
1	875	1169
1	899	1170
1	914	1171
1	926	1172
1	937	1173
1	945	1174
1	953	1175
1	959	1176
1	978	1177
1	993	1178
1	1015	1179
1	1037	1180
1	1068	1181
1	1102	1182
1	1136	1183
1	1166	1184
1	1188	1185
1	1215	1186
1	1241	1187
1	1260	1188
1	1269	1189
1	1265	1190
1	1254	1191
1	1245	1192
1	1237	1193
1	1228	1194
1	1227	1195
1	1233	1196
1	1242	1197
1	1262	1198
1	1275	1199
1	1288	1200
1	1294	1201
1	1301	1202
1	1301	1203
1	1301	1204
1	1294	1205
1	1287	1206
1	1272	1207
1	1252	1208
1	1232	1209
1	1211	1210
1	1184	1211
1	1151	1212
1	1119	1213
1	1076	1214
1	1031	1215
1	984	1216
1	931	1217
1	887	1218
1	850	1219
1	822	1220
1	804	1221
1	792	1222
1	783	1223
1	781	1224
1	794	1225
1	810	1226
1	836	1227
1	863	1228
1	890	1229
1	909	1230
1	931	1231
1	950	1232
1	971	1233
1	983	1234
1	997	1235
1	1005	1236
1	1008	1237
1	1005	1238
1	995	1239
1	982	1240
1	977	1241
1	972	1242
1	974	1243
1	979	1244
1	990	1245
1	1005	1246
1	1018	1247
1	1023	1248
1	1029	1249
1	1031	1250
1	1031	1251
1	1026	1252
1	1017	1253
1	1009	1254
1	1003	1255
1	989	1256
1	978	1257
1	978	1258
1	978	1259
1	979	1260
1	990	1261
1	999	1262
1	1010	1263
1	1023	1264
1	1031	1265
1	1034	1266
1	1042	1267
1	1041	1268
1	1044	1269
1	1049	1270
1	1049	1271
1	1045	1272
1	1037	1273
1	1022	1274
1	1008	1275
1	998	1276
1	987	1277
1	982	1278
1	987	1279
1	995	1280
1	1005	1281
1	1010	1282
1	1006	1283
1	1005	1284
1	1009	1285
1	1018	1286
1	1031	1287
1	1044	1288
1	1053	1289
1	1058	1290
1	1062	1291
1	1068	1292
1	1069	1293
1	1066	1294
1	1062	1295
1	1060	1296
1	1059	1297
1	1053	1298
1	1051	1299
1	1047	1300
1	1044	1301
1	1040	1302
1	1035	1303
1	1032	1304
1	1041	1305
1	1049	1306
1	1058	1307
1	1065	1308
1	1076	1309
1	1087	1310
1	1103	1311
1	1118	1312
1	1132	1313
1	1152	1314
1	1175	1315
1	1200	1316
1	1206	1317
1	1201	1318
1	1181	1319
1	1157	1320
1	1124	1321
1	1089	1322
1	1067	1323
1	1060	1324
1	1069	1325
1	1080	1326
1	1086	1327
1	1082	1328
1	1077	1329
1	1074	1330
1	1074	1331
1	1071	1332
1	1073	1333
1	1080	1334
1	1078	1335
1	1076	1336
1	1075	1337
1	1066	1338
1	1060	1339
1	1055	1340
1	1047	1341
1	1044	1342
1	1042	1343
1	1050	1344
1	1061	1345
1	1073	1346
1	1085	1347
1	1099	1348
1	1101	1349
1	1106	1350
1	1110	1351
1	1116	1352
1	1121	1353
1	1122	1354
1	1123	1355
1	1134	1356
1	1150	1357
1	1161	1358
1	1171	1359
1	1183	1360
1	1188	1361
1	1188	1362
1	1189	1363
1	1188	1364
1	1187	1365
1	1184	1366
1	1184	1367
1	1175	1368
1	1162	1369
1	1148	1370
1	1135	1371
1	1131	1372
1	1127	1373
1	1132	1374
1	1138	1375
1	1150	1376
1	1166	1377
1	1184	1378
1	1188	1379
1	1188	1380
1	1186	1381
1	1180	1382
1	1176	1383
1	1174	1384
1	1177	1385
1	1188	1386
1	1203	1387
1	1210	1388
1	1220	1389
1	1231	1390
1	1237	1391
1	1239	1392
1	1235	1393
1	1227	1394
1	1215	1395
1	1211	1396
1	1207	1397
1	1215	1398
1	1224	1399
1	1238	1400
1	1248	1401
1	1255	1402
1	1255	1403
1	1259	1404
1	1265	1405
1	1267	1406
1	1271	1407
1	1283	1408
1	1288	1409
1	1293	1410
1	1293	1411
1	1294	1412
1	1293	1413
1	1292	1414
1	1287	1415
1	1279	1416
1	1273	1417
1	1267	1418
1	1265	1419
1	1321	1440
1	1315	1441
1	1314	1442
1	1319	1443
1	1326	1444
1	1334	1445
1	1344	1446
1	1350	1447
1	1349	1448
1	1353	1449
1	1356	1450
1	1355	1451
1	1350	1452
1	1346	1453
1	1347	1454
1	1348	1455
1	1347	1456
1	1348	1457
1	1346	1458
1	1343	1459
1	1267	1420
1	1273	1421
1	1278	1422
1	1284	1423
1	1293	1424
1	1301	1425
1	1310	1426
1	1320	1427
1	1337	1428
1	1346	1429
1	1359	1430
1	1366	1431
1	1364	1432
1	1364	1433
1	1357	1434
1	1347	1435
1	1346	1436
1	1346	1437
1	1343	1438
1	1332	1439
1	1341	1460
1	1341	1461
1	1346	1462
1	1346	1463
1	1350	1464
1	1356	1465
1	1358	1466
1	1364	1467
1	1372	1468
1	1371	1469
1	1371	1470
1	1372	1471
1	1372	1472
1	1372	1473
1	1373	1474
1	1380	1475
1	1383	1476
1	1394	1477
1	1384	1478
1	1393	1479
1	1398	1480
1	1402	1481
1	1398	1482
1	1398	1483
1	1394	1484
1	1384	1485
1	1393	1486
1	1397	1487
1	1399	1488
1	1400	1489
1	1398	1490
1	1391	1491
1	1383	1492
1	1373	1493
1	1371	1494
1	1359	1495
1	1348	1496
1	1337	1497
1	1332	1498
1	1321	1499
1	1309	1500
1	1295	1501
1	1286	1502
1	1281	1503
1	1286	1504
1	1296	1505
1	1314	1506
1	1332	1507
1	1344	1508
1	1356	1509
1	1368	1510
1	1376	1511
1	1380	1512
1	1375	1513
1	1354	1514
1	1332	1515
1	1309	1516
1	1289	1517
1	1277	1518
1	1260	1519
1	1241	1520
1	1220	1521
1	1201	1522
1	1177	1523
1	1162	1524
1	1161	1525
1	1164	1526
1	1175	1527
1	1189	1528
1	1204	1529
1	1211	1530
1	1220	1531
1	1220	1532
1	1215	1533
1	1206	1534
1	1206	1535
1	1199	1536
1	1193	1537
1	1191	1538
1	1190	1539
1	1189	1540
1	1188	1541
1	1186	1542
1	1179	1543
1	1174	1544
1	1164	1545
1	1165	1546
1	1168	1547
1	1170	1548
1	1172	1549
1	1175	1550
1	1183	1551
1	1188	1552
1	1183	1553
1	1176	1554
1	1174	1555
1	1170	1556
1	1166	1557
1	1175	1558
1	1181	1559
1	1184	1560
1	1188	1561
1	1188	1562
1	1188	1563
1	1188	1564
1	1188	1565
1	1188	1566
1	1190	1567
1	1188	1568
1	1190	1569
1	1196	1570
1	1204	1571
1	1215	1572
1	1224	1573
1	1229	1574
1	1229	1575
1	1224	1576
1	1215	1577
1	1205	1578
1	1189	1579
1	1184	1580
1	1178	1581
1	1180	1582
1	1176	1583
1	1177	1584
1	1180	1585
1	1188	1586
1	1193	1587
1	1201	1588
1	1202	1589
1	1203	1590
1	1212	1591
1	1215	1592
1	1216	1593
1	1220	1594
1	1219	1595
1	1216	1596
1	1215	1597
1	1206	1598
1	1206	1599
1	1206	1600
1	1207	1601
1	1214	1602
1	1219	1603
1	1228	1604
1	1236	1605
1	1238	1606
1	1241	1607
1	1242	1608
1	1241	1609
1	1241	1610
1	1241	1611
1	1238	1612
1	1230	1613
1	1232	1614
1	1240	1615
1	1246	1616
1	1249	1617
1	1248	1618
1	1241	1619
1	1234	1640
1	1229	1641
1	1225	1642
1	1217	1643
1	1217	1644
1	1225	1645
1	1232	1646
1	1242	1647
1	1247	1648
1	1253	1649
1	1258	1650
1	1268	1651
1	1279	1652
1	1287	1653
1	1293	1654
1	1301	1655
1	1301	1656
1	1297	1657
1	1294	1658
1	1291	1659
1	1289	1640
1	1288	1641
1	1288	1642
1	1279	1643
1	1272	1644
1	1267	1645
1	1266	1646
1	1269	1647
1	1284	1648
1	1292	1649
1	1296	1650
1	1301	1651
1	1298	1652
1	1294	1653
1	1293	1654
1	1292	1655
1	1278	1656
1	1267	1657
1	1249	1658
1	1238	1659
1	1293	1680
1	1293	1681
1	1288	1682
1	1279	1683
1	1271	1684
1	1268	1685
1	1267	1686
1	1268	1687
1	1267	1688
1	1270	1689
1	1270	1690
1	1269	1691
1	1274	1692
1	1283	1693
1	1287	1694
1	1287	1695
1	1293	1696
1	1296	1697
1	1299	1698
1	1301	1699
1	1232	1660
1	1232	1661
1	1238	1662
1	1243	1663
1	1256	1664
1	1266	1665
1	1278	1666
1	1292	1667
1	1306	1668
1	1322	1669
1	1332	1670
1	1338	1671
1	1346	1672
1	1346	1673
1	1341	1674
1	1332	1675
1	1325	1676
1	1317	1677
1	1309	1678
1	1295	1679
1	1302	1700
1	1306	1701
1	1314	1702
1	1315	1703
1	1319	1704
1	1323	1705
1	1328	1706
1	1337	1707
1	1346	1708
1	1344	1709
1	1346	1710
1	1350	1711
1	1359	1712
1	1372	1713
1	1374	1714
1	1376	1715
1	1373	1716
1	1371	1717
1	1364	1718
1	1364	1719
1	1363	1720
1	1361	1721
1	1353	1722
1	1350	1723
1	1348	1724
1	1352	1725
1	1351	1726
1	1348	1727
1	1345	1728
1	1335	1729
1	1327	1730
1	1320	1731
1	1315	1732
1	1299	1733
1	1292	1734
1	1284	1735
1	1280	1736
1	1282	1737
1	1292	1738
1	1296	1739
1	1302	1760
1	1307	1761
1	1318	1762
1	1323	1763
1	1332	1764
1	1341	1765
1	1350	1766
1	1364	1767
1	1369	1768
1	1368	1769
1	1368	1770
1	1362	1771
1	1357	1772
1	1353	1773
1	1346	1774
1	1341	1775
1	1337	1776
1	1336	1777
1	1335	1778
1	1337	1779
1	1340	1760
1	1343	1761
1	1346	1762
1	1345	1763
1	1347	1764
1	1355	1765
1	1363	1766
1	1372	1767
1	1384	1768
1	1399	1769
1	1409	1770
1	1416	1771
1	1415	1772
1	1409	1773
1	1399	1774
1	1384	1775
1	1376	1776
1	1369	1777
1	1363	1778
1	1359	1779
1	1368	1780
1	1375	1781
1	1384	1782
1	1400	1783
1	1408	1784
1	1409	1785
1	1404	1786
1	1398	1787
1	1398	1788
1	1400	1789
1	1409	1790
1	1416	1791
1	1413	1792
1	1397	1793
1	1373	1794
1	1348	1795
1	1332	1796
1	1322	1797
1	1330	1798
1	1328	1799
1	1327	1800
1	1328	1801
1	1334	1802
1	1344	1803
1	1353	1804
1	1360	1805
1	1359	1806
1	1367	1807
1	1373	1808
1	1384	1809
1	1398	1810
1	1402	1811
1	1400	1812
1	1406	1813
1	1410	1814
1	1419	1815
1	1424	1816
1	1424	1817
1	1427	1818
1	1430	1819
1	1432	1820
1	1430	1821
1	1430	1822
1	1424	1823
1	1416	1824
1	1407	1825
1	1398	1826
1	1384	1827
1	1382	1828
1	1378	1829
1	1374	1830
1	1382	1831
1	1382	1832
1	1396	1833
1	1398	1834
1	1409	1835
1	1411	1836
1	1413	1837
1	1413	1838
1	1416	1839
1	1422	1840
1	1423	1841
1	1424	1842
1	1427	1843
1	1437	1844
1	1436	1845
1	1437	1846
1	1441	1847
1	1442	1848
1	1446	1849
1	1454	1850
1	1466	1851
1	1479	1852
1	1486	1853
1	1494	1854
1	1497	1855
1	1490	1856
1	1485	1857
1	1482	1858
1	1474	1859
1	1468	1860
1	1469	1861
1	1476	1862
1	1485	1863
1	1498	1864
1	1508	1865
1	1513	1866
1	1517	1867
1	1515	1868
1	1515	1869
1	1517	1870
1	1508	1871
1	1498	1872
1	1487	1873
1	1468	1874
1	1461	1875
1	1458	1876
1	1458	1877
1	1456	1878
1	1452	1879
1	1446	1880
1	1437	1881
1	1438	1882
1	1440	1883
1	1451	1884
1	1475	1885
1	1492	1886
1	1510	1887
1	1527	1888
1	1528	1889
1	1529	1890
1	1526	1891
1	1518	1892
1	1512	1893
1	1503	1894
1	1495	1895
1	1485	1896
1	1476	1897
1	1459	1898
1	1451	1899
1	1449	1900
1	1445	1901
1	1438	1902
1	1441	1903
1	1440	1904
1	1442	1905
1	1446	1906
1	1445	1907
1	1448	1908
1	1449	1909
1	1449	1910
1	1446	1911
1	1445	1912
1	1440	1913
1	1443	1914
1	1449	1915
1	1450	1916
1	1451	1917
1	1454	1918
1	1450	1919
1	1375	1940
1	1407	1941
1	1424	1942
1	1427	1943
1	1431	1944
1	1438	1945
1	1450	1946
1	1466	1947
1	1481	1948
1	1484	1949
1	1482	1950
1	1477	1951
1	1479	1952
1	1482	1953
1	1489	1954
1	1495	1955
1	1503	1956
1	1508	1957
1	1504	1958
1	1503	1959
1	1441	1920
1	1430	1921
1	1424	1922
1	1424	1923
1	1427	1924
1	1434	1925
1	1440	1926
1	1450	1927
1	1445	1928
1	1434	1929
1	1411	1930
1	1391	1931
1	1370	1932
1	1357	1933
1	1345	1934
1	1332	1935
1	1326	1936
1	1328	1937
1	1333	1938
1	1348	1939
1	1707	2000
1	1733	2001
1	1762	2002
1	1776	2003
1	1792	2004
1	1811	2005
1	1819	2006
1	1829	2007
1	1836	2008
1	1837	2009
1	1835	2010
1	1830	2011
1	1827	2012
1	1827	2013
1	1826	2014
1	1814	2015
1	1791	2016
1	1778	2017
1	1764	2018
1	1755	2019
1	1495	1960
1	1481	1961
1	1467	1962
1	1465	1963
1	1461	1964
1	1463	1965
1	1468	1966
1	1476	1967
1	1481	1968
1	1481	1969
1	1479	1970
1	1477	1971
1	1476	1972
1	1467	1973
1	1462	1974
1	1454	1975
1	1449	1976
1	1448	1977
1	1453	1978
1	1462	1979
1	1471	1980
1	1481	1981
1	1497	1982
1	1510	1983
1	1520	1984
1	1529	1985
1	1538	1986
1	1546	1987
1	1544	1988
1	1549	1989
1	1560	1990
1	1571	1991
1	1581	1992
1	1595	1993
1	1607	1994
1	1616	1995
1	1634	1996
1	1648	1997
1	1665	1998
1	1686	1999
1	1751	2020
1	1742	2021
1	1738	2022
1	1738	2023
1	1731	2024
1	1715	2025
1	1695	2026
1	1665	2027
1	1634	2028
1	1602	2029
1	1563	2030
1	1530	2031
1	1498	2032
1	1468	2033
1	1441	2034
1	1422	2035
1	1403	2036
1	1391	2037
1	1379	2038
1	1382	2039
1	1540	2060
1	1532	2061
1	1525	2062
1	1504	2063
1	1503	2064
1	1503	2065
1	1510	2066
1	1516	2067
1	1518	2068
1	1518	2069
1	1526	2070
1	1533	2071
1	1537	2072
1	1535	2073
1	1537	2074
1	1535	2075
1	1530	2076
1	1524	2077
1	1507	2078
1	1498	2079
1	1486	2080
1	1476	2081
1	1474	2082
1	1474	2083
1	1467	2084
1	1467	2085
1	1471	2086
1	1475	2087
1	1477	2088
1	1488	2089
1	1500	2090
1	1512	2091
1	1527	2092
1	1530	2093
1	1535	2094
1	1533	2095
1	1529	2096
1	1525	2097
1	1526	2098
1	1527	2099
1	1395	2040
1	1409	2041
1	1427	2042
1	1437	2043
1	1451	2044
1	1467	2045
1	1476	2046
1	1487	2047
1	1489	2048
1	1487	2049
1	1481	2050
1	1484	2051
1	1491	2052
1	1503	2053
1	1507	2054
1	1511	2055
1	1520	2056
1	1529	2057
1	1538	2058
1	1542	2059
1	1532	2100
1	1541	2101
1	1548	2102
1	1556	2103
1	1566	2104
1	1572	2105
1	1573	2106
1	1577	2107
1	1571	2108
1	1575	2109
1	1581	2110
1	1586	2111
1	1586	2112
1	1582	2113
1	1571	2114
1	1556	2115
1	1545	2116
1	1541	2117
1	1533	2118
1	1531	2119
1	1530	2120
1	1530	2121
1	1529	2122
1	1524	2123
1	1521	2124
1	1516	2125
1	1515	2126
1	1520	2127
1	1529	2128
1	1529	2129
1	1529	2130
1	1542	2131
1	1542	2132
1	1548	2133
1	1543	2134
1	1544	2135
1	1548	2136
1	1548	2137
1	1545	2138
1	1542	2139
1	1540	2140
1	1544	2141
1	1549	2142
1	1556	2143
1	1567	2144
1	1572	2145
1	1580	2146
1	1585	2147
1	1582	2148
1	1582	2149
1	1584	2150
1	1582	2151
1	1583	2152
1	1582	2153
1	1581	2154
1	1585	2155
1	1589	2156
1	1586	2157
1	1584	2158
1	1580	2159
1	1581	2160
1	1581	2161
1	1580	2162
1	1570	2163
1	1555	2164
1	1544	2165
1	1542	2166
1	1544	2167
1	1547	2168
1	1553	2169
1	1553	2170
1	1556	2171
1	1569	2172
1	1585	2173
1	1600	2174
1	1611	2175
1	1619	2176
1	1620	2177
1	1620	2178
1	1620	2179
1	1616	2180
1	1609	2181
1	1607	2182
1	1599	2183
1	1590	2184
1	1585	2185
1	1582	2186
1	1584	2187
1	1593	2188
1	1594	2189
1	1598	2190
1	1600	2191
1	1603	2192
1	1607	2193
1	1611	2194
1	1616	2195
1	1619	2196
1	1618	2197
1	1607	2198
1	1602	2199
1	1602	2200
1	1605	2201
1	1610	2202
1	1625	2203
1	1629	2204
1	1629	2205
1	1634	2206
1	1641	2207
1	1646	2208
1	1648	2209
1	1647	2210
1	1642	2211
1	1634	2212
1	1619	2213
1	1610	2214
1	1609	2215
1	1615	2216
1	1621	2217
1	1634	2218
1	1638	2219
1	1686	2240
1	1703	2241
1	1716	2242
1	1719	2243
1	1719	2244
1	1713	2245
1	1708	2246
1	1703	2247
1	1707	2248
1	1701	2249
1	1696	2250
1	1691	2251
1	1688	2252
1	1688	2253
1	1691	2254
1	1697	2255
1	1697	2256
1	1695	2257
1	1698	2258
1	1703	2259
1	1647	2220
1	1655	2221
1	1661	2222
1	1662	2223
1	1662	2224
1	1665	2225
1	1670	2226
1	1673	2227
1	1665	2228
1	1660	2229
1	1654	2230
1	1647	2231
1	1644	2232
1	1642	2233
1	1643	2234
1	1646	2235
1	1646	2236
1	1652	2237
1	1657	2238
1	1668	2239
1	1710	2260
1	1718	2261
1	1728	2262
1	1740	2263
1	1740	2264
1	1741	2265
1	1740	2266
1	1740	2267
1	1744	2268
1	1744	2269
1	1746	2270
1	1751	2271
1	1751	2272
1	1744	2273
1	1742	2274
1	1741	2275
1	1737	2276
1	1724	2277
1	1721	2278
1	1714	2279
1	1715	2280
1	1716	2281
1	1716	2282
1	1712	2283
1	1710	2284
1	1712	2285
1	1716	2286
1	1719	2287
1	1724	2288
1	1729	2289
1	1736	2290
1	1740	2291
1	1747	2292
1	1754	2293
1	1759	2294
1	1764	2295
1	1766	2296
1	1760	2297
1	1748	2298
1	1737	2299
1	1727	2300
1	1724	2301
1	1715	2302
1	1705	2303
1	1704	2304
1	1707	2305
1	1709	2306
1	1712	2307
1	1721	2308
1	1724	2309
1	1724	2310
1	1721	2311
1	1719	2312
1	1717	2313
1	1716	2314
1	1715	2315
1	1718	2316
1	1717	2317
1	1705	2318
1	1695	2319
1	1684	2320
1	1667	2321
1	1651	2322
1	1643	2323
1	1633	2324
1	1625	2325
1	1628	2326
1	1629	2327
1	1617	2328
1	1603	2329
1	1586	2330
1	1580	2331
1	1579	2332
1	1584	2333
1	1593	2334
1	1594	2335
1	1598	2336
1	1604	2337
1	1611	2338
1	1621	2339
1	1625	2340
1	1625	2341
1	1620	2342
1	1607	2343
1	1597	2344
1	1592	2345
1	1588	2346
1	1584	2347
1	1579	2348
1	1574	2349
1	1567	2350
1	1557	2351
1	1554	2352
1	1555	2353
1	1548	2354
1	1537	2355
1	1529	2356
1	1517	2357
1	1505	2358
1	1497	2359
1	1481	2360
1	1472	2361
1	1464	2362
1	1454	2363
1	1461	2364
1	1475	2365
1	1490	2366
1	1505	2367
1	1529	2368
1	1539	2369
1	1540	2370
1	1535	2371
1	1536	2372
1	1534	2373
1	1530	2374
1	1521	2375
1	1512	2376
1	1502	2377
1	1490	2378
1	1485	2379
1	1481	2380
1	1477	2381
1	1475	2382
1	1476	2383
1	1475	2384
1	1477	2385
1	1481	2386
1	1489	2387
1	1494	2388
1	1503	2389
1	1510	2390
1	1523	2391
1	1529	2392
1	1527	2393
1	1521	2394
1	1515	2395
1	1508	2396
1	1502	2397
1	1500	2398
1	1490	2399
1	1485	2400
1	1482	2401
1	1481	2402
1	1482	2403
1	1490	2404
1	1503	2405
1	1517	2406
1	1529	2407
1	1531	2408
1	1535	2409
1	1536	2410
1	1533	2411
1	1530	2412
1	1530	2413
1	1524	2414
1	1506	2415
1	1485	2416
1	1458	2417
1	1437	2418
1	1424	2419
1	1412	2420
1	1402	2421
1	1405	2422
1	1412	2423
1	1426	2424
1	1447	2425
1	1466	2426
1	1485	2427
1	1504	2428
1	1516	2429
1	1511	2430
1	1514	2431
1	1508	2432
1	1514	2433
1	1505	2434
1	1503	2435
1	1492	2436
1	1487	2437
1	1478	2438
1	1476	2439
1	1476	2440
1	1479	2441
1	1490	2442
1	1499	2443
1	1503	2444
1	1508	2445
1	1512	2446
1	1517	2447
1	1515	2448
1	1508	2449
1	1503	2450
1	1490	2451
1	1485	2452
1	1477	2453
1	1476	2454
1	1476	2455
1	1476	2456
1	1476	2457
1	1485	2458
1	1490	2459
1	1492	2460
1	1493	2461
1	1487	2462
1	1478	2463
1	1468	2464
1	1456	2465
1	1453	2466
1	1454	2467
1	1451	2468
1	1450	2469
1	1451	2470
1	1451	2471
1	1449	2472
1	1451	2473
1	1459	2474
1	1468	2475
1	1468	2476
1	1458	2477
1	1450	2478
1	1451	2479
1	1459	2480
1	1463	2481
1	1458	2482
1	1451	2483
1	1449	2484
1	1450	2485
1	1463	2486
1	1479	2487
1	1503	2488
1	1518	2489
1	1530	2490
1	1542	2491
1	1549	2492
1	1548	2493
1	1547	2494
1	1546	2495
1	1540	2496
1	1530	2497
1	1517	2498
1	1503	2499
1	1490	2500
1	1482	2501
1	1476	2502
1	1477	2503
1	1476	2504
1	1476	2505
1	1476	2506
1	1477	2507
1	1484	2508
1	1487	2509
1	1489	2510
1	1486	2511
1	1485	2512
1	1478	2513
1	1476	2514
1	1472	2515
1	1463	2516
1	1454	2517
1	1450	2518
1	1446	2519
1	1453	2520
1	1472	2521
1	1478	2522
1	1478	2523
1	1482	2524
1	1482	2525
1	1485	2526
1	1484	2527
1	1476	2528
1	1474	2529
1	1476	2530
1	1467	2531
1	1460	2532
1	1452	2533
1	1445	2534
1	1428	2535
1	1424	2536
1	1413	2537
1	1399	2538
1	1391	2539
1	1384	2540
1	1392	2541
1	1395	2542
1	1406	2543
1	1420	2544
1	1439	2545
1	1455	2546
1	1475	2547
1	1485	2548
1	1497	2549
1	1503	2550
1	1513	2551
1	1517	2552
1	1517	2553
1	1517	2554
1	1517	2555
1	1512	2556
1	1508	2557
1	1503	2558
1	1502	2559
1	1500	2560
1	1490	2561
1	1485	2562
1	1482	2563
1	1471	2564
1	1462	2565
1	1458	2566
1	1459	2567
1	1464	2568
1	1465	2569
1	1466	2570
1	1468	2571
1	1467	2572
1	1465	2573
1	1463	2574
1	1463	2575
1	1464	2576
1	1463	2577
1	1463	2578
1	1461	2579
1	1456	2580
1	1455	2581
1	1454	2582
1	1462	2583
1	1463	2584
1	1466	2585
1	1473	2586
1	1476	2587
1	1485	2588
1	1488	2589
1	1490	2590
1	1492	2591
1	1500	2592
1	1507	2593
1	1504	2594
1	1494	2595
1	1485	2596
1	1471	2597
1	1463	2598
1	1455	2599
1	1449	2600
1	1446	2601
1	1437	2602
1	1427	2603
1	1426	2604
1	1433	2605
1	1441	2606
1	1450	2607
1	1467	2608
1	1476	2609
1	1476	2610
1	1476	2611
1	1472	2612
1	1467	2613
1	1462	2614
1	1456	2615
1	1448	2616
1	1431	2617
1	1417	2618
1	1413	2619
1	1420	2620
1	1424	2621
1	1436	2622
1	1449	2623
1	1456	2624
1	1465	2625
1	1476	2626
1	1490	2627
1	1495	2628
1	1503	2629
1	1503	2630
1	1505	2631
1	1503	2632
1	1503	2633
1	1503	2634
1	1503	2635
1	1503	2636
1	1501	2637
1	1495	2638
1	1485	2639
1	1476	2640
1	1475	2641
1	1478	2642
1	1478	2643
1	1479	2644
1	1482	2645
1	1481	2646
1	1481	2647
1	1476	2648
1	1472	2649
1	1476	2650
1	1476	2651
1	1476	2652
1	1476	2653
1	1474	2654
1	1473	2655
1	1476	2656
1	1482	2657
1	1490	2658
1	1497	2659
1	1497	2660
1	1501	2661
1	1503	2662
1	1500	2663
1	1489	2664
1	1476	2665
1	1463	2666
1	1450	2667
1	1449	2668
1	1445	2669
1	1450	2670
1	1459	2671
1	1469	2672
1	1476	2673
1	1478	2674
1	1482	2675
1	1490	2676
1	1494	2677
1	1490	2678
1	1487	2679
1	1480	2680
1	1471	2681
1	1456	2682
1	1452	2683
1	1441	2684
1	1431	2685
1	1429	2686
1	1428	2687
1	1441	2688
1	1450	2689
1	1450	2690
1	1452	2691
1	1454	2692
1	1459	2693
1	1474	2694
1	1488	2695
1	1499	2696
1	1503	2697
1	1512	2698
1	1514	2699
1	1512	2700
1	1508	2701
1	1507	2702
1	1511	2703
1	1514	2704
1	1517	2705
1	1525	2706
1	1530	2707
1	1526	2708
1	1517	2709
1	1507	2710
1	1503	2711
1	1503	2712
1	1513	2713
1	1515	2714
1	1520	2715
1	1517	2716
1	1510	2717
1	1503	2718
1	1502	2719
1	1548	2740
1	1544	2741
1	1546	2742
1	1551	2743
1	1555	2744
1	1560	2745
1	1568	2746
1	1581	2747
1	1582	2748
1	1584	2749
1	1589	2750
1	1592	2751
1	1603	2752
1	1607	2753
1	1616	2754
1	1619	2755
1	1611	2756
1	1600	2757
1	1585	2758
1	1567	2759
1	1495	2720
1	1493	2721
1	1493	2722
1	1489	2723
1	1490	2724
1	1490	2725
1	1491	2726
1	1500	2727
1	1515	2728
1	1526	2729
1	1525	2730
1	1533	2731
1	1534	2732
1	1549	2733
1	1555	2734
1	1557	2735
1	1557	2736
1	1557	2737
1	1553	2738
1	1549	2739
1	1544	2760
1	1520	2761
1	1503	2762
1	1490	2763
1	1476	2764
1	1471	2765
1	1469	2766
1	1476	2767
1	1485	2768
1	1503	2769
1	1521	2770
1	1529	2771
1	1527	2772
1	1524	2773
1	1507	2774
1	1481	2775
1	1455	2776
1	1442	2777
1	1437	2778
1	1448	2779
1	1463	2780
1	1472	2781
1	1480	2782
1	1486	2783
1	1499	2784
1	1503	2785
1	1507	2786
1	1507	2787
1	1508	2788
1	1505	2789
1	1503	2790
1	1499	2791
1	1495	2792
1	1495	2793
1	1495	2794
1	1496	2795
1	1492	2796
1	1488	2797
1	1478	2798
1	1476	2799
1	1472	2800
1	1467	2801
1	1463	2802
1	1472	2803
1	1471	2804
1	1467	2805
1	1463	2806
1	1456	2807
1	1450	2808
1	1445	2809
1	1440	2810
1	1437	2811
1	1438	2812
1	1437	2813
1	1439	2814
1	1446	2815
1	1451	2816
1	1463	2817
1	1482	2818
1	1495	2819
1	1503	2820
1	1503	2821
1	1493	2822
1	1479	2823
1	1473	2824
1	1471	2825
1	1475	2826
1	1476	2827
1	1477	2828
1	1486	2829
1	1495	2830
1	1500	2831
1	1503	2832
1	1508	2833
1	1508	2834
1	1499	2835
1	1482	2836
1	1472	2837
1	1461	2838
1	1450	2839
1	1453	2840
1	1459	2841
1	1467	2842
1	1472	2843
1	1474	2844
1	1473	2845
1	1476	2846
1	1487	2847
1	1503	2848
1	1508	2849
1	1513	2850
1	1512	2851
1	1506	2852
1	1497	2853
1	1485	2854
1	1476	2855
1	1477	2856
1	1484	2857
1	1492	2858
1	1502	2859
1	1508	2860
1	1518	2861
1	1526	2862
1	1538	2863
1	1553	2864
1	1571	2865
1	1592	2866
1	1611	2867
1	1634	2868
1	1659	2869
1	1688	2870
1	1720	2871
1	1748	2872
1	1765	2873
1	1786	2874
1	1796	2875
1	1814	2876
1	1820	2877
1	1835	2878
1	1838	2879
1	1839	2880
1	1838	2881
1	1836	2882
1	1839	2883
1	1845	2884
1	1856	2885
1	1867	2886
1	1865	2887
1	1855	2888
1	1837	2889
1	1817	2890
1	1788	2891
1	1764	2892
1	1746	2893
1	1723	2894
1	1697	2895
1	1672	2896
1	1647	2897
1	1620	2898
1	1594	2899
1	1569	2900
1	1542	2901
1	1513	2902
1	1476	2903
1	1443	2904
1	1420	2905
1	1400	2906
1	1377	2907
1	1375	2908
1	1373	2909
1	1376	2910
1	1384	2911
1	1395	2912
1	1400	2913
1	1409	2914
1	1418	2915
1	1427	2916
1	1435	2917
1	1432	2918
1	1430	2919
1	1432	2920
1	1428	2921
1	1426	2922
1	1427	2923
1	1428	2924
1	1424	2925
1	1424	2926
1	1433	2927
1	1450	2928
1	1476	2929
1	1487	2930
1	1488	2931
1	1484	2932
1	1476	2933
1	1466	2934
1	1461	2935
1	1462	2936
1	1474	2937
1	1472	2938
1	1482	2939
1	1500	2940
1	1503	2941
1	1503	2942
1	1500	2943
1	1491	2944
1	1493	2945
1	1498	2946
1	1503	2947
1	1500	2948
1	1495	2949
1	1492	2950
1	1494	2951
1	1503	2952
1	1505	2953
1	1505	2954
1	1499	2955
1	1490	2956
1	1490	2957
1	1492	2958
1	1495	2959
1	1495	2960
1	1491	2961
1	1484	2962
1	1476	2963
1	1466	2964
1	1458	2965
1	1454	2966
1	1458	2967
1	1469	2968
1	1476	2969
1	1487	2970
1	1490	2971
1	1494	2972
1	1502	2973
1	1501	2974
1	1499	2975
1	1498	2976
1	1495	2977
1	1487	2978
1	1485	2979
1	1481	2980
1	1482	2981
1	1490	2982
1	1503	2983
1	1511	2984
1	1517	2985
1	1521	2986
1	1514	2987
1	1519	2988
1	1525	2989
1	1530	2990
1	1537	2991
1	1530	2992
1	1512	2993
1	1495	2994
1	1477	2995
1	1462	2996
1	1454	2997
1	1463	2998
1	1463	2999
1	1466	3000
1	1468	3001
1	1475	3002
1	1479	3003
1	1484	3004
1	1485	3005
1	1490	3006
1	1495	3007
1	1503	3008
1	1512	3009
1	1528	3010
1	1541	3011
1	1557	3012
1	1572	3013
1	1579	3014
1	1581	3015
1	1578	3016
1	1568	3017
1	1556	3018
1	1549	3019
1	1490	3040
1	1490	3041
1	1494	3042
1	1503	3043
1	1513	3044
1	1521	3045
1	1540	3046
1	1555	3047
1	1567	3048
1	1575	3049
1	1577	3050
1	1574	3051
1	1574	3052
1	1566	3053
1	1558	3054
1	1555	3055
1	1554	3056
1	1561	3057
1	1570	3058
1	1577	3059
1	1541	3020
1	1533	3021
1	1530	3022
1	1526	3023
1	1518	3024
1	1512	3025
1	1512	3026
1	1515	3027
1	1523	3028
1	1529	3029
1	1532	3030
1	1543	3031
1	1540	3032
1	1546	3033
1	1537	3034
1	1526	3035
1	1511	3036
1	1501	3037
1	1492	3038
1	1490	3039
1	1582	3060
1	1589	3061
1	1595	3062
1	1600	3063
1	1598	3064
1	1595	3065
1	1594	3066
1	1598	3067
1	1597	3068
1	1600	3069
1	1602	3070
1	1607	3071
1	1610	3072
1	1612	3073
1	1608	3074
1	1606	3075
1	1606	3076
1	1606	3077
1	1607	3078
1	1610	3079
1	1611	3080
1	1611	3081
1	1607	3082
1	1599	3083
1	1596	3084
1	1596	3085
1	1602	3086
1	1607	3087
1	1607	3088
1	1603	3089
1	1595	3090
1	1590	3091
1	1584	3092
1	1585	3093
1	1589	3094
1	1595	3095
1	1605	3096
1	1613	3097
1	1616	3098
1	1620	3099
1	1620	3100
1	1619	3101
1	1616	3102
1	1621	3103
1	1619	3104
1	1620	3105
1	1625	3106
1	1631	3107
1	1633	3108
1	1634	3109
1	1634	3110
1	1643	3111
1	1656	3112
1	1664	3113
1	1674	3114
1	1681	3115
1	1685	3116
1	1689	3117
1	1686	3118
1	1682	3119
1	1683	3120
1	1686	3121
1	1688	3122
1	1693	3123
1	1693	3124
1	1690	3125
1	1688	3126
1	1682	3127
1	1669	3128
1	1660	3129
1	1669	3130
1	1683	3131
1	1693	3132
1	1703	3133
1	1708	3134
1	1711	3135
1	1714	3136
1	1718	3137
1	1717	3138
1	1717	3139
1	1724	3140
1	1736	3141
1	1741	3142
1	1751	3143
1	1759	3144
1	1765	3145
1	1769	3146
1	1775	3147
1	1769	3148
1	1762	3149
1	1755	3150
1	1750	3151
1	1747	3152
1	1740	3153
1	1738	3154
1	1735	3155
1	1729	3156
1	1724	3157
1	1712	3158
1	1708	3159
1	1703	3160
1	1700	3161
1	1701	3162
1	1701	3163
1	1701	3164
1	1701	3165
1	1706	3166
1	1706	3167
1	1708	3168
1	1710	3169
1	1714	3170
1	1717	3171
1	1718	3172
1	1710	3173
1	1701	3174
1	1701	3175
1	1701	3176
1	1704	3177
1	1700	3178
1	1692	3179
1	1686	3180
1	1679	3181
1	1678	3182
1	1681	3183
1	1682	3184
1	1683	3185
1	1682	3186
1	1679	3187
1	1672	3188
1	1672	3189
1	1674	3190
1	1674	3191
1	1677	3192
1	1686	3193
1	1686	3194
1	1686	3195
1	1686	3196
1	1687	3197
1	1692	3198
1	1696	3199
1	1695	3200
1	1686	3201
1	1667	3202
1	1647	3203
1	1634	3204
1	1622	3205
1	1610	3206
1	1609	3207
1	1607	3208
1	1599	3209
1	1597	3210
1	1593	3211
1	1595	3212
1	1602	3213
1	1607	3214
1	1613	3215
1	1613	3216
1	1609	3217
1	1593	3218
1	1580	3219
1	1521	3240
1	1517	3241
1	1520	3242
1	1517	3243
1	1517	3244
1	1518	3245
1	1519	3246
1	1526	3247
1	1521	3248
1	1518	3249
1	1519	3250
1	1526	3251
1	1547	3252
1	1559	3253
1	1569	3254
1	1577	3255
1	1579	3256
1	1581	3257
1	1575	3258
1	1557	3259
1	1539	3260
1	1524	3261
1	1508	3262
1	1492	3263
1	1484	3264
1	1476	3265
1	1471	3266
1	1466	3267
1	1465	3268
1	1466	3269
1	1472	3270
1	1476	3271
1	1481	3272
1	1486	3273
1	1490	3274
1	1494	3275
1	1500	3276
1	1503	3277
1	1503	3278
1	1506	3279
1	1566	3220
1	1556	3221
1	1559	3222
1	1557	3223
1	1558	3224
1	1563	3225
1	1559	3226
1	1555	3227
1	1545	3228
1	1540	3229
1	1533	3230
1	1533	3231
1	1539	3232
1	1544	3233
1	1546	3234
1	1546	3235
1	1542	3236
1	1545	3237
1	1529	3238
1	1526	3239
1	1534	3300
1	1535	3301
1	1535	3302
1	1534	3303
1	1530	3304
1	1531	3305
1	1535	3306
1	1542	3307
1	1539	3308
1	1535	3309
1	1535	3310
1	1535	3311
1	1538	3312
1	1539	3313
1	1538	3314
1	1542	3315
1	1549	3316
1	1552	3317
1	1546	3318
1	1538	3319
1	1511	3280
1	1516	3281
1	1519	3282
1	1517	3283
1	1512	3284
1	1510	3285
1	1512	3286
1	1513	3287
1	1512	3288
1	1512	3289
1	1512	3290
1	1516	3291
1	1519	3292
1	1515	3293
1	1513	3294
1	1518	3295
1	1526	3296
1	1530	3297
1	1533	3298
1	1535	3299
1	1531	3320
1	1526	3321
1	1521	3322
1	1512	3323
1	1510	3324
1	1512	3325
1	1513	3326
1	1520	3327
1	1529	3328
1	1535	3329
1	1536	3330
1	1542	3331
1	1541	3332
1	1533	3333
1	1529	3334
1	1521	3335
1	1513	3336
1	1506	3337
1	1503	3338
1	1501	3339
1	1499	3340
1	1499	3341
1	1503	3342
1	1512	3343
1	1526	3344
1	1533	3345
1	1536	3346
1	1541	3347
1	1536	3348
1	1528	3349
1	1517	3350
1	1513	3351
1	1520	3352
1	1526	3353
1	1529	3354
1	1528	3355
1	1525	3356
1	1525	3357
1	1529	3358
1	1535	3359
1	1541	3360
1	1542	3361
1	1539	3362
1	1536	3363
1	1536	3364
1	1542	3365
1	1544	3366
1	1548	3367
1	1543	3368
1	1540	3369
1	1539	3370
1	1538	3371
1	1536	3372
1	1530	3373
1	1522	3374
1	1514	3375
1	1509	3376
1	1513	3377
1	1524	3378
1	1530	3379
1	1538	3380
1	1544	3381
1	1548	3382
1	1544	3383
1	1544	3384
1	1543	3385
1	1547	3386
1	1547	3387
1	1555	3388
1	1556	3389
1	1559	3390
1	1563	3391
1	1564	3392
1	1566	3393
1	1566	3394
1	1566	3395
1	1562	3396
1	1555	3397
1	1535	3398
1	1519	3399
1	1507	3400
1	1503	3401
1	1504	3402
1	1515	3403
1	1515	3404
1	1515	3405
1	1514	3406
1	1524	3407
1	1532	3408
1	1544	3409
1	1554	3410
1	1559	3411
1	1571	3412
1	1570	3413
1	1572	3414
1	1575	3415
1	1573	3416
1	1566	3417
1	1564	3418
1	1561	3419
1	1561	3420
1	1560	3421
1	1555	3422
1	1553	3423
1	1547	3424
1	1538	3425
1	1530	3426
1	1529	3427
1	1523	3428
1	1521	3429
1	1520	3430
1	1516	3431
1	1517	3432
1	1521	3433
1	1520	3434
1	1526	3435
1	1530	3436
1	1541	3437
1	1559	3438
1	1578	3439
1	1584	3440
1	1586	3441
1	1581	3442
1	1568	3443
1	1559	3444
1	1555	3445
1	1544	3446
1	1540	3447
1	1544	3448
1	1541	3449
1	1538	3450
1	1539	3451
1	1542	3452
1	1549	3453
1	1559	3454
1	1573	3455
1	1580	3456
1	1581	3457
1	1573	3458
1	1568	3459
1	1566	3460
1	1561	3461
1	1557	3462
1	1564	3463
1	1571	3464
1	1577	3465
1	1579	3466
1	1579	3467
1	1581	3468
1	1585	3469
1	1582	3470
1	1579	3471
1	1569	3472
1	1553	3473
1	1536	3474
1	1525	3475
1	1512	3476
1	1503	3477
1	1497	3478
1	1491	3479
1	1494	3480
1	1503	3481
1	1510	3482
1	1519	3483
1	1526	3484
1	1534	3485
1	1540	3486
1	1544	3487
1	1557	3488
1	1572	3489
1	1577	3490
1	1581	3491
1	1586	3492
1	1600	3493
1	1607	3494
1	1607	3495
1	1606	3496
1	1594	3497
1	1579	3498
1	1562	3499
1	1551	3500
1	1541	3501
1	1541	3502
1	1536	3503
1	1539	3504
1	1542	3505
1	1541	3506
1	1542	3507
1	1554	3508
1	1556	3509
1	1566	3510
1	1569	3511
1	1572	3512
1	1578	3513
1	1579	3514
1	1577	3515
1	1571	3516
1	1559	3517
1	1544	3518
1	1539	3519
1	1537	3520
1	1534	3521
1	1529	3522
1	1529	3523
1	1529	3524
1	1539	3525
1	1554	3526
1	1566	3527
1	1571	3528
1	1580	3529
1	1582	3530
1	1583	3531
1	1581	3532
1	1577	3533
1	1566	3534
1	1556	3535
1	1549	3536
1	1543	3537
1	1542	3538
1	1544	3539
1	1551	3540
1	1551	3541
1	1551	3542
1	1544	3543
1	1543	3544
1	1541	3545
1	1539	3546
1	1543	3547
1	1543	3548
1	1548	3549
1	1555	3550
1	1554	3551
1	1552	3552
1	1553	3553
1	1549	3554
1	1546	3555
1	1542	3556
1	1537	3557
1	1537	3558
1	1538	3559
1	1539	3560
1	1545	3561
1	1549	3562
1	1544	3563
1	1549	3564
1	1553	3565
1	1555	3566
1	1554	3567
1	1549	3568
1	1538	3569
1	1529	3570
1	1528	3571
1	1534	3572
1	1542	3573
1	1538	3574
1	1533	3575
1	1538	3576
1	1548	3577
1	1557	3578
1	1576	3579
1	1550	3600
1	1545	3601
1	1542	3602
1	1541	3603
1	1535	3604
1	1530	3605
1	1529	3606
1	1530	3607
1	1529	3608
1	1530	3609
1	1538	3610
1	1544	3611
1	1553	3612
1	1564	3613
1	1571	3614
1	1577	3615
1	1585	3616
1	1589	3617
1	1593	3618
1	1596	3619
1	1593	3580
1	1607	3581
1	1620	3582
1	1622	3583
1	1615	3584
1	1610	3585
1	1606	3586
1	1593	3587
1	1587	3588
1	1580	3589
1	1571	3590
1	1567	3591
1	1566	3592
1	1566	3593
1	1567	3594
1	1568	3595
1	1566	3596
1	1564	3597
1	1566	3598
1	1555	3599
1	1598	3640
1	1607	3641
1	1615	3642
1	1628	3643
1	1628	3644
1	1632	3645
1	1638	3646
1	1650	3647
1	1665	3648
1	1683	3649
1	1695	3650
1	1700	3651
1	1697	3652
1	1685	3653
1	1682	3654
1	1681	3655
1	1672	3656
1	1660	3657
1	1645	3658
1	1628	3659
1	1600	3620
1	1605	3621
1	1607	3622
1	1602	3623
1	1596	3624
1	1593	3625
1	1592	3626
1	1595	3627
1	1606	3628
1	1602	3629
1	1590	3630
1	1589	3631
1	1584	3632
1	1576	3633
1	1574	3634
1	1569	3635
1	1566	3636
1	1569	3637
1	1580	3638
1	1592	3639
1	1607	3660
1	1594	3661
1	1581	3662
1	1575	3663
1	1567	3664
1	1563	3665
1	1571	3666
1	1585	3667
1	1599	3668
1	1611	3669
1	1621	3670
1	1629	3671
1	1634	3672
1	1641	3673
1	1642	3674
1	1638	3675
1	1629	3676
1	1611	3677
1	1597	3678
1	1583	3679
1	1572	3680
1	1564	3681
1	1555	3682
1	1544	3683
1	1541	3684
1	1542	3685
1	1550	3686
1	1557	3687
1	1580	3688
1	1585	3689
1	1587	3690
1	1589	3691
1	1590	3692
1	1590	3693
1	1590	3694
1	1589	3695
1	1580	3696
1	1565	3697
1	1544	3698
1	1531	3699
1	1526	3700
1	1520	3701
1	1508	3702
1	1504	3703
1	1502	3704
1	1502	3705
1	1503	3706
1	1510	3707
1	1517	3708
1	1530	3709
1	1544	3710
1	1557	3711
1	1572	3712
1	1576	3713
1	1577	3714
1	1573	3715
1	1567	3716
1	1559	3717
1	1557	3718
1	1555	3719
1	1548	3720
1	1536	3721
1	1524	3722
1	1510	3723
1	1502	3724
1	1490	3725
1	1479	3726
1	1476	3727
1	1469	3728
1	1469	3729
1	1466	3730
1	1464	3731
1	1464	3732
1	1463	3733
1	1460	3734
1	1468	3735
1	1472	3736
1	1476	3737
1	1478	3738
1	1487	3739
1	1500	3740
1	1510	3741
1	1521	3742
1	1525	3743
1	1530	3744
1	1542	3745
1	1553	3746
1	1557	3747
1	1563	3748
1	1566	3749
1	1569	3750
1	1566	3751
1	1566	3752
1	1556	3753
1	1549	3754
1	1541	3755
1	1539	3756
1	1540	3757
1	1538	3758
1	1536	3759
1	1539	3760
1	1542	3761
1	1548	3762
1	1555	3763
1	1559	3764
1	1561	3765
1	1567	3766
1	1572	3767
1	1574	3768
1	1572	3769
1	1572	3770
1	1579	3771
1	1593	3772
1	1602	3773
1	1612	3774
1	1625	3775
1	1634	3776
1	1642	3777
1	1661	3778
1	1680	3779
1	1699	3780
1	1723	3781
1	1752	3782
1	1787	3783
1	1817	3784
1	1832	3785
1	1843	3786
1	1853	3787
1	1862	3788
1	1869	3789
1	1870	3790
1	1869	3791
1	1869	3792
1	1881	3793
1	1885	3794
1	1886	3795
1	1883	3796
1	1880	3797
1	1882	3798
1	1883	3799
1	1885	3800
1	1883	3801
1	1881	3802
1	1867	3803
1	1847	3804
1	1832	3805
1	1817	3806
1	1798	3807
1	1782	3808
1	1761	3809
1	1734	3810
1	1706	3811
1	1672	3812
1	1629	3813
1	1581	3814
1	1537	3815
1	1495	3816
1	1458	3817
1	1421	3818
1	1384	3819
1	1363	3820
1	1346	3821
1	1334	3822
1	1337	3823
1	1346	3824
1	1361	3825
1	1391	3826
1	1415	3827
1	1428	3828
1	1449	3829
1	1469	3830
1	1489	3831
1	1510	3832
1	1535	3833
1	1554	3834
1	1567	3835
1	1575	3836
1	1572	3837
1	1555	3838
1	1543	3839
1	1535	3840
1	1529	3841
1	1537	3842
1	1538	3843
1	1538	3844
1	1539	3845
1	1535	3846
1	1533	3847
1	1523	3848
1	1517	3849
1	1523	3850
1	1533	3851
1	1552	3852
1	1566	3853
1	1566	3854
1	1563	3855
1	1559	3856
1	1555	3857
1	1550	3858
1	1546	3859
1	1543	3860
1	1542	3861
1	1544	3862
1	1547	3863
1	1556	3864
1	1574	3865
1	1592	3866
1	1607	3867
1	1617	3868
1	1615	3869
1	1613	3870
1	1613	3871
1	1611	3872
1	1607	3873
1	1596	3874
1	1591	3875
1	1589	3876
1	1584	3877
1	1573	3878
1	1565	3879
1	1569	3900
1	1566	3901
1	1561	3902
1	1555	3903
1	1555	3904
1	1555	3905
1	1556	3906
1	1557	3907
1	1556	3908
1	1557	3909
1	1564	3910
1	1566	3911
1	1571	3912
1	1581	3913
1	1580	3914
1	1580	3915
1	1575	3916
1	1574	3917
1	1571	3918
1	1577	3919
1	1559	3880
1	1561	3881
1	1564	3882
1	1563	3883
1	1556	3884
1	1553	3885
1	1549	3886
1	1541	3887
1	1543	3888
1	1547	3889
1	1557	3890
1	1577	3891
1	1593	3892
1	1600	3893
1	1599	3894
1	1593	3895
1	1587	3896
1	1582	3897
1	1582	3898
1	1576	3899
1	1583	3920
1	1593	3921
1	1598	3922
1	1596	3923
1	1598	3924
1	1607	3925
1	1622	3926
1	1633	3927
1	1644	3928
1	1649	3929
1	1648	3930
1	1658	3931
1	1661	3932
1	1656	3933
1	1644	3934
1	1625	3935
1	1607	3936
1	1589	3937
1	1579	3938
1	1563	3939
1	1553	3940
1	1544	3941
1	1539	3942
1	1539	3943
1	1538	3944
1	1544	3945
1	1557	3946
1	1580	3947
1	1590	3948
1	1598	3949
1	1607	3950
1	1609	3951
1	1623	3952
1	1634	3953
1	1641	3954
1	1645	3955
1	1643	3956
1	1638	3957
1	1636	3958
1	1638	3959
1	1651	3960
1	1663	3961
1	1677	3962
1	1686	3963
1	1695	3964
1	1697	3965
1	1693	3966
1	1686	3967
1	1678	3968
1	1672	3969
1	1669	3970
1	1670	3971
1	1672	3972
1	1680	3973
1	1682	3974
1	1682	3975
1	1679	3976
1	1674	3977
1	1665	3978
1	1658	3979
1	1654	3980
1	1654	3981
1	1656	3982
1	1652	3983
1	1651	3984
1	1652	3985
1	1654	3986
1	1660	3987
1	1673	3988
1	1684	3989
1	1693	3990
1	1701	3991
1	1701	3992
1	1699	3993
1	1700	3994
1	1703	3995
1	1711	3996
1	1710	3997
1	1696	3998
1	1679	3999
1	1659	4000
1	1641	4001
1	1633	4002
1	1634	4003
1	1637	4004
1	1646	4005
1	1652	4006
1	1663	4006
1	1675	4008
1	1686	4009
1	1696	4010
1	1707	4011
1	1721	4012
1	1733	4013
1	1744	4014
1	1751	4014
1	1748	4016
1	1738	4017
1	1738	4018
1	1733	4019
1	1727	4020
1	1728	4021
1	1735	4022
1	1744	4022
1	1757	4024
1	1764	4025
1	1769	4026
1	1776	4027
1	1777	4028
1	1779	4029
1	1777	4030
1	1770	4030
1	1764	4032
1	1759	4033
1	1757	4034
1	1763	4035
1	1769	4036
1	1787	4037
1	1791	4038
1	1793	4038
1	1791	4040
1	1791	4041
1	1788	4042
1	1780	4043
1	1778	4044
1	1779	4045
1	1778	4046
1	1775	4046
1	1769	4048
1	1763	4049
1	1760	4050
1	1760	4051
1	1764	4052
1	1777	4053
1	1786	4054
1	1787	4054
1	1785	4056
1	1783	4057
1	1782	4058
1	1789	4059
1	1799	4060
1	1810	4061
1	1812	4062
1	1816	4062
1	1817	4064
1	1820	4065
1	1828	4066
1	1832	4067
1	1838	4068
1	1837	4069
1	1836	4070
1	1832	4070
1	1832	4072
1	1828	4073
1	1829	4074
1	1830	4075
1	1823	4076
1	1817	4077
1	1818	4078
1	1817	4078
1	1817	4080
1	1817	4081
1	1818	4082
1	1822	4083
1	1819	4084
1	1817	4085
1	1809	4086
1	1792	4086
1	1773	4088
1	1761	4089
1	1751	4090
1	1746	4091
1	1751	4092
1	1764	4093
1	1767	4094
1	1769	4094
1	1767	4096
1	1764	4097
1	1764	4098
1	1761	4099
1	1752	4100
1	1739	4101
1	1727	4102
1	1710	4103
1	1697	4104
1	1691	4105
1	1694	4106
1	1701	4107
1	1715	4108
1	1720	4109
1	1723	4110
1	1722	4111
1	1713	4112
1	1710	4113
1	1705	4114
1	1704	4115
1	1705	4116
1	1708	4117
1	1703	4118
1	1703	4119
1	1700	4120
1	1697	4121
1	1687	4122
1	1684	4123
1	1672	4124
1	1661	4125
1	1652	4126
1	1639	4127
1	1621	4128
1	1611	4129
1	1607	4130
1	1611	4131
1	1621	4132
1	1629	4133
1	1631	4134
1	1630	4135
1	1626	4136
1	1621	4137
1	1612	4138
1	1609	4139
1	1607	4140
1	1607	4141
1	1608	4142
1	1607	4143
1	1596	4144
1	1590	4145
1	1590	4146
1	1590	4147
1	1587	4148
1	1592	4149
1	1593	4150
1	1597	4151
1	1607	4152
1	1618	4153
1	1623	4154
1	1629	4155
1	1626	4156
1	1615	4157
1	1597	4158
1	1581	4159
1	1566	4160
1	1555	4161
1	1553	4162
1	1544	4163
1	1542	4164
1	1541	4165
1	1536	4166
1	1536	4167
1	1541	4168
1	1545	4169
1	1554	4170
1	1562	4171
1	1571	4172
1	1580	4173
1	1582	4174
1	1581	4175
1	1575	4176
1	1568	4177
1	1556	4178
1	1546	4179
1	1538	4180
1	1531	4181
1	1533	4182
1	1547	4183
1	1556	4184
1	1562	4185
1	1572	4186
1	1578	4187
1	1581	4188
1	1587	4189
1	1597	4190
1	1602	4191
1	1603	4192
1	1598	4193
1	1591	4194
1	1584	4195
1	1587	4196
1	1589	4197
1	1594	4198
1	1591	4199
1	1584	4200
1	1580	4201
1	1574	4202
1	1567	4203
1	1562	4204
1	1559	4205
1	1556	4206
1	1561	4207
1	1567	4208
1	1580	4209
1	1587	4210
1	1592	4211
1	1592	4212
1	1599	4213
1	1604	4214
1	1608	4215
1	1620	4216
1	1628	4217
1	1625	4218
1	1612	4219
1	1600	4220
1	1585	4221
1	1577	4222
1	1564	4223
1	1557	4224
1	1556	4225
1	1554	4226
1	1555	4227
1	1563	4228
1	1567	4229
1	1566	4230
1	1579	4231
1	1587	4232
1	1592	4233
1	1593	4234
1	1592	4235
1	1590	4236
1	1586	4237
1	1581	4238
1	1578	4239
1	1573	4240
1	1573	4241
1	1573	4242
1	1572	4243
1	1572	4244
1	1572	4245
1	1580	4246
1	1592	4247
1	1595	4248
1	1595	4249
1	1598	4250
1	1601	4251
1	1601	4252
1	1594	4253
1	1592	4254
1	1584	4255
1	1580	4256
1	1574	4257
1	1572	4258
1	1569	4259
1	1566	4260
1	1562	4261
1	1563	4262
1	1568	4263
1	1572	4264
1	1581	4265
1	1590	4266
1	1600	4267
1	1603	4268
1	1607	4269
1	1612	4270
1	1620	4271
1	1625	4272
1	1631	4273
1	1632	4274
1	1631	4275
1	1626	4276
1	1620	4277
1	1616	4278
1	1615	4279
1	1608	4280
1	1602	4281
1	1595	4282
1	1587	4283
1	1582	4284
1	1581	4285
1	1581	4286
1	1591	4287
1	1594	4288
1	1595	4289
1	1608	4290
1	1611	4291
1	1621	4292
1	1626	4293
1	1626	4294
1	1621	4295
1	1613	4296
1	1604	4297
1	1586	4298
1	1572	4299
1	1559	4300
1	1551	4301
1	1549	4302
1	1555	4303
1	1560	4304
1	1562	4305
1	1560	4306
1	1559	4307
1	1567	4308
1	1581	4309
1	1586	4310
1	1594	4311
1	1602	4312
1	1603	4313
1	1602	4314
1	1598	4315
1	1593	4316
1	1581	4317
1	1580	4318
1	1576	4319
1	1571	4340
1	1573	4341
1	1577	4342
1	1577	4343
1	1575	4344
1	1575	4345
1	1579	4346
1	1584	4347
1	1590	4348
1	1600	4349
1	1608	4350
1	1616	4351
1	1626	4352
1	1638	4353
1	1644	4354
1	1644	4355
1	1638	4356
1	1634	4357
1	1625	4358
1	1616	4359
1	1607	4340
1	1598	4341
1	1593	4342
1	1589	4343
1	1586	4344
1	1582	4345
1	1579	4346
1	1566	4347
1	1566	4348
1	1565	4349
1	1566	4350
1	1577	4351
1	1582	4352
1	1593	4353
1	1600	4354
1	1605	4355
1	1607	4356
1	1607	4357
1	1599	4358
1	1594	4359
1	1584	4360
1	1580	4361
1	1581	4362
1	1587	4363
1	1594	4364
1	1607	4365
1	1612	4366
1	1620	4367
1	1620	4368
1	1620	4369
1	1618	4370
1	1613	4371
1	1612	4372
1	1605	4373
1	1593	4374
1	1582	4375
1	1577	4376
1	1572	4377
1	1579	4378
1	1575	4379
1	1598	4400
1	1605	4401
1	1607	4402
1	1605	4403
1	1606	4404
1	1605	4405
1	1602	4406
1	1603	4407
1	1608	4408
1	1613	4409
1	1619	4410
1	1615	4411
1	1607	4412
1	1605	4413
1	1598	4414
1	1591	4415
1	1585	4416
1	1583	4417
1	1580	4418
1	1582	4419
1	1570	4380
1	1560	4381
1	1557	4382
1	1564	4383
1	1572	4384
1	1572	4385
1	1575	4386
1	1580	4387
1	1584	4388
1	1597	4389
1	1610	4390
1	1616	4391
1	1622	4392
1	1630	4393
1	1626	4394
1	1619	4395
1	1610	4396
1	1603	4397
1	1598	4398
1	1595	4399
1	1586	4420
1	1590	4421
1	1594	4422
1	1598	4423
1	1593	4424
1	1589	4425
1	1590	4426
1	1589	4427
1	1584	4428
1	1586	4429
1	1592	4430
1	1598	4431
1	1610	4432
1	1629	4433
1	1638	4434
1	1651	4435
1	1660	4436
1	1665	4437
1	1662	4438
1	1659	4439
1	1651	4440
1	1642	4441
1	1645	4442
1	1637	4443
1	1628	4444
1	1613	4445
1	1600	4446
1	1587	4447
1	1579	4448
1	1574	4449
1	1572	4450
1	1567	4451
1	1563	4452
1	1572	4453
1	1580	4454
1	1586	4455
1	1594	4456
1	1602	4457
1	1608	4458
1	1611	4459
1	1616	4460
1	1622	4461
1	1628	4462
1	1622	4463
1	1616	4464
1	1619	4465
1	1619	4466
1	1620	4467
1	1626	4468
1	1633	4469
1	1634	4470
1	1636	4471
1	1634	4472
1	1632	4473
1	1629	4474
1	1626	4475
1	1628	4476
1	1626	4477
1	1620	4478
1	1607	4479
1	1592	4480
1	1575	4481
1	1560	4482
1	1553	4483
1	1555	4484
1	1563	4485
1	1579	4486
1	1598	4487
1	1621	4488
1	1643	4489
1	1668	4490
1	1688	4491
1	1700	4492
1	1704	4493
1	1700	4494
1	1691	4495
1	1677	4496
1	1661	4497
1	1656	4498
1	1646	4499
1	1638	4500
1	1634	4501
1	1629	4502
1	1617	4503
1	1607	4504
1	1606	4505
1	1607	4506
1	1608	4507
1	1607	4508
1	1608	4509
1	1611	4510
1	1615	4511
1	1613	4512
1	1623	4513
1	1622	4514
1	1628	4515
1	1629	4516
1	1628	4517
1	1630	4518
1	1632	4519
1	1636	4520
1	1646	4521
1	1651	4522
1	1652	4523
1	1659	4524
1	1662	4525
1	1669	4526
1	1674	4527
1	1686	4528
1	1693	4529
1	1695	4530
1	1711	4531
1	1712	4532
1	1708	4533
1	1701	4534
1	1695	4535
1	1688	4536
1	1685	4537
1	1680	4538
1	1676	4539
1	1672	4540
1	1672	4541
1	1673	4542
1	1681	4543
1	1687	4544
1	1704	4545
1	1714	4546
1	1724	4547
1	1731	4548
1	1741	4549
1	1754	4550
1	1762	4551
1	1764	4552
1	1764	4553
1	1760	4554
1	1750	4555
1	1738	4556
1	1735	4557
1	1733	4558
1	1727	4559
1	1723	4560
1	1711	4561
1	1701	4562
1	1696	4563
1	1685	4564
1	1674	4565
1	1665	4566
1	1670	4567
1	1674	4568
1	1685	4569
1	1695	4570
1	1706	4571
1	1714	4572
1	1724	4573
1	1724	4574
1	1720	4575
1	1712	4576
1	1701	4577
1	1688	4578
1	1686	4579
1	1686	4580
1	1686	4581
1	1690	4582
1	1688	4583
1	1688	4584
1	1682	4585
1	1669	4586
1	1665	4587
1	1660	4588
1	1649	4589
1	1656	4590
1	1661	4591
1	1673	4592
1	1678	4593
1	1677	4594
1	1672	4595
1	1661	4596
1	1648	4597
1	1633	4598
1	1619	4599
1	1609	4600
1	1603	4601
1	1594	4602
1	1594	4603
1	1594	4604
1	1599	4605
1	1610	4606
1	1632	4607
1	1651	4608
1	1665	4609
1	1675	4610
1	1680	4611
1	1685	4612
1	1674	4613
1	1664	4614
1	1649	4615
1	1629	4616
1	1610	4617
1	1603	4618
1	1594	4619
1	1597	4640
1	1600	4641
1	1607	4642
1	1615	4643
1	1620	4644
1	1620	4645
1	1618	4646
1	1619	4647
1	1626	4648
1	1637	4649
1	1645	4650
1	1650	4651
1	1659	4652
1	1661	4653
1	1661	4654
1	1665	4655
1	1665	4656
1	1661	4657
1	1643	4658
1	1629	4659
1	1592	4620
1	1593	4621
1	1598	4622
1	1606	4623
1	1603	4624
1	1604	4625
1	1607	4626
1	1608	4627
1	1608	4628
1	1616	4629
1	1618	4630
1	1608	4631
1	1605	4632
1	1598	4633
1	1594	4634
1	1594	4635
1	1595	4636
1	1593	4637
1	1595	4638
1	1595	4639
1	1725	4680
1	1749	4681
1	1778	4682
1	1813	4683
1	1842	4684
1	1868	4685
1	1890	4686
1	1913	4687
1	1931	4688
1	1949	4689
1	1967	4690
1	1977	4691
1	1980	4692
1	1986	4693
1	1989	4694
1	1994	4695
1	2002	4696
1	2013	4697
1	2019	4698
1	2029	4699
1	1616	4660
1	1613	4661
1	1618	4662
1	1628	4663
1	1623	4664
1	1621	4665
1	1618	4666
1	1619	4667
1	1621	4668
1	1620	4669
1	1619	4670
1	1619	4671
1	1626	4672
1	1634	4673
1	1646	4674
1	1660	4675
1	1670	4676
1	1683	4677
1	1697	4678
1	1710	4679
1	2034	4700
1	2034	4701
1	2030	4702
1	2019	4703
1	2007	4704
1	1991	4705
1	1967	4706
1	1945	4707
1	1926	4708
1	1904	4709
1	1873	4710
1	1841	4711
1	1796	4712
1	1757	4713
1	1719	4714
1	1683	4715
1	1644	4716
1	1605	4717
1	1559	4718
1	1535	4719
1	1513	4720
1	1491	4721
1	1477	4722
1	1476	4723
1	1474	4724
1	1476	4725
1	1490	4726
1	1505	4727
1	1520	4728
1	1536	4729
1	1556	4730
1	1574	4731
1	1585	4732
1	1593	4733
1	1593	4734
1	1596	4735
1	1599	4736
1	1602	4737
1	1603	4738
1	1600	4739
1	1603	4760
1	1598	4761
1	1607	4762
1	1616	4763
1	1628	4764
1	1639	4765
1	1652	4766
1	1664	4767
1	1683	4768
1	1686	4769
1	1685	4770
1	1674	4771
1	1661	4772
1	1652	4773
1	1646	4774
1	1639	4775
1	1639	4776
1	1643	4777
1	1642	4778
1	1644	4779
1	1599	4740
1	1602	4741
1	1608	4742
1	1615	4743
1	1616	4744
1	1621	4745
1	1633	4746
1	1638	4747
1	1639	4748
1	1638	4749
1	1638	4750
1	1636	4751
1	1634	4752
1	1638	4753
1	1638	4754
1	1634	4755
1	1625	4756
1	1620	4757
1	1611	4758
1	1607	4759
1	1647	4780
1	1651	4781
1	1657	4782
1	1671	4783
1	1679	4784
1	1683	4785
1	1686	4786
1	1688	4787
1	1692	4788
1	1686	4789
1	1682	4790
1	1680	4791
1	1676	4792
1	1671	4793
1	1664	4794
1	1659	4795
1	1657	4796
1	1660	4797
1	1667	4798
1	1664	4799
1	1660	4800
1	1660	4801
1	1665	4802
1	1675	4803
1	1686	4804
1	1698	4805
1	1704	4806
1	1711	4807
1	1712	4808
1	1714	4809
1	1719	4810
1	1723	4811
1	1727	4812
1	1737	4813
1	1728	4814
1	1712	4815
1	1697	4816
1	1683	4817
1	1672	4818
1	1667	4819
1	1665	4820
1	1661	4821
1	1657	4822
1	1647	4823
1	1647	4824
1	1647	4825
1	1647	4826
1	1647	4827
1	1660	4828
1	1670	4829
1	1681	4830
1	1698	4831
1	1703	4832
1	1700	4833
1	1704	4834
1	1710	4835
1	1711	4836
1	1710	4837
1	1706	4838
1	1700	4839
1	1690	4840
1	1683	4841
1	1672	4842
1	1660	4843
1	1656	4844
1	1656	4845
1	1652	4846
1	1659	4847
1	1666	4848
1	1678	4849
1	1684	4850
1	1686	4851
1	1682	4852
1	1665	4853
1	1665	4854
1	1675	4855
1	1686	4856
1	1695	4857
1	1707	4858
1	1710	4859
1	1710	4860
1	1708	4861
1	1710	4862
1	1718	4863
1	1729	4864
1	1738	4865
1	1743	4866
1	1747	4867
1	1738	4868
1	1729	4869
1	1719	4870
1	1711	4871
1	1708	4872
1	1712	4873
1	1712	4874
1	1710	4875
1	1712	4876
1	1718	4877
1	1729	4878
1	1741	4879
1	1751	4880
1	1764	4881
1	1775	4882
1	1773	4883
1	1773	4884
1	1773	4885
1	1769	4886
1	1766	4887
1	1772	4888
1	1773	4889
1	1775	4890
1	1777	4891
1	1780	4892
1	1777	4893
1	1776	4894
1	1769	4895
1	1764	4896
1	1760	4897
1	1754	4898
1	1757	4899
1	1766	4900
1	1775	4901
1	1776	4902
1	1778	4903
1	1773	4904
1	1767	4905
1	1764	4906
1	1764	4907
1	1765	4908
1	1769	4909
1	1773	4910
1	1780	4911
1	1783	4912
1	1778	4913
1	1778	4914
1	1778	4915
1	1787	4916
1	1791	4917
1	1795	4918
1	1791	4919
1	1789	4920
1	1783	4921
1	1779	4922
1	1778	4923
1	1777	4924
1	1781	4925
1	1795	4926
1	1815	4927
1	1825	4928
1	1835	4929
1	1843	4930
1	1846	4931
1	1849	4932
1	1849	4933
1	1852	4934
1	1854	4935
1	1867	4936
1	1869	4937
1	1870	4938
1	1867	4939
1	1862	4940
1	1861	4941
1	1864	4942
1	1860	4943
1	1859	4944
1	1856	4945
1	1853	4946
1	1857	4947
1	1872	4948
1	1886	4949
1	1891	4950
1	1888	4951
1	1877	4952
1	1864	4953
1	1854	4954
1	1848	4955
1	1850	4956
1	1858	4957
1	1858	4958
1	1859	4959
1	1862	4960
1	1869	4961
1	1873	4962
1	1886	4963
1	1888	4964
1	1888	4965
1	1894	4966
1	1895	4967
1	1895	4968
1	1897	4969
1	1907	4970
1	1908	4971
1	1908	4972
1	1899	4973
1	1899	4974
1	1895	4975
1	1890	4976
1	1886	4977
1	1893	4978
1	1881	4979
1	1868	4980
1	1856	4981
1	1847	4982
1	1844	4983
1	1843	4984
1	1843	4985
1	1847	4986
1	1856	4987
1	1865	4988
1	1869	4989
1	1870	4990
1	1870	4991
1	1863	4992
1	1861	4993
1	1856	4994
1	1856	4995
1	1867	4996
1	1875	4997
1	1873	4998
1	1860	4999
1	1842	5000
1	1827	5001
1	1818	5002
1	1814	5003
1	1812	5004
1	1812	5005
1	1812	5006
1	1808	5007
1	1808	5008
1	1796	5009
1	1791	5010
1	1790	5011
1	1789	5012
1	1788	5013
1	1789	5014
1	1790	5015
1	1791	5016
1	1791	5017
1	1779	5018
1	1778	5019
1	1787	5020
1	1790	5021
1	1787	5022
1	1780	5023
1	1764	5024
1	1749	5025
1	1733	5026
1	1719	5027
1	1704	5028
1	1698	5029
1	1697	5030
1	1698	5031
1	1693	5032
1	1690	5033
1	1690	5034
1	1686	5035
1	1682	5036
1	1680	5037
1	1682	5038
1	1684	5039
1	1689	5040
1	1697	5041
1	1706	5042
1	1707	5043
1	1700	5044
1	1688	5045
1	1680	5046
1	1674	5047
1	1665	5048
1	1669	5049
1	1677	5050
1	1686	5051
1	1699	5052
1	1714	5053
1	1717	5054
1	1711	5055
1	1701	5056
1	1688	5057
1	1682	5058
1	1673	5059
1	1665	5060
1	1660	5061
1	1649	5062
1	1637	5063
1	1632	5064
1	1633	5065
1	1636	5066
1	1644	5067
1	1660	5068
1	1661	5069
1	1660	5070
1	1660	5071
1	1660	5072
1	1657	5073
1	1650	5074
1	1643	5075
1	1638	5076
1	1636	5077
1	1633	5078
1	1634	5079
1	1637	5080
1	1645	5081
1	1643	5082
1	1646	5083
1	1639	5084
1	1639	5085
1	1637	5086
1	1648	5087
1	1654	5088
1	1660	5089
1	1665	5090
1	1674	5091
1	1675	5092
1	1677	5093
1	1680	5094
1	1674	5095
1	1665	5096
1	1660	5097
1	1657	5098
1	1646	5099
1	1636	5100
1	1631	5101
1	1626	5102
1	1628	5103
1	1633	5104
1	1639	5105
1	1651	5106
1	1660	5107
1	1660	5108
1	1659	5109
1	1651	5110
1	1643	5111
1	1638	5112
1	1647	5113
1	1652	5114
1	1660	5115
1	1668	5116
1	1677	5117
1	1688	5118
1	1697	5119
1	1697	5120
1	1689	5121
1	1684	5122
1	1669	5123
1	1660	5124
1	1647	5125
1	1634	5126
1	1631	5127
1	1625	5128
1	1623	5129
1	1626	5130
1	1632	5131
1	1638	5132
1	1652	5133
1	1646	5134
1	1641	5135
1	1635	5136
1	1633	5137
1	1620	5138
1	1608	5139
1	1602	5140
1	1602	5141
1	1610	5142
1	1632	5143
1	1648	5144
1	1661	5145
1	1670	5146
1	1682	5147
1	1692	5148
1	1702	5149
1	1715	5150
1	1724	5151
1	1728	5152
1	1725	5153
1	1723	5154
1	1718	5155
1	1711	5156
1	1701	5157
1	1690	5158
1	1681	5159
1	1672	5160
1	1669	5161
1	1664	5162
1	1660	5163
1	1652	5164
1	1647	5165
1	1639	5166
1	1636	5167
1	1634	5168
1	1634	5169
1	1639	5170
1	1641	5171
1	1642	5172
1	1647	5173
1	1648	5174
1	1647	5175
1	1648	5176
1	1655	5177
1	1660	5178
1	1661	5179
1	1665	5180
1	1670	5181
1	1677	5182
1	1680	5183
1	1686	5184
1	1686	5185
1	1677	5186
1	1671	5187
1	1668	5188
1	1660	5189
1	1651	5190
1	1652	5191
1	1655	5192
1	1658	5193
1	1656	5194
1	1652	5195
1	1647	5196
1	1646	5197
1	1637	5198
1	1632	5199
1	1625	5200
1	1625	5201
1	1629	5202
1	1637	5203
1	1634	5204
1	1629	5205
1	1628	5206
1	1632	5207
1	1634	5208
1	1645	5209
1	1657	5210
1	1667	5211
1	1684	5212
1	1693	5213
1	1703	5214
1	1712	5215
1	1718	5216
1	1724	5217
1	1727	5218
1	1717	5219
1	1710	5220
1	1699	5221
1	1695	5222
1	1687	5223
1	1685	5224
1	1679	5225
1	1675	5226
1	1674	5227
1	1670	5228
1	1670	5229
1	1668	5230
1	1665	5231
1	1660	5232
1	1656	5233
1	1649	5234
1	1651	5235
1	1647	5236
1	1643	5237
1	1635	5238
1	1634	5239
1	1636	5240
1	1642	5241
1	1647	5242
1	1643	5243
1	1643	5244
1	1645	5245
1	1639	5246
1	1643	5247
1	1649	5248
1	1669	5249
1	1683	5250
1	1690	5251
1	1695	5252
1	1697	5253
1	1694	5254
1	1686	5255
1	1684	5256
1	1677	5257
1	1662	5258
1	1652	5259
1	1646	5260
1	1641	5261
1	1638	5262
1	1634	5263
1	1634	5264
1	1631	5265
1	1629	5266
1	1637	5267
1	1651	5268
1	1660	5269
1	1670	5270
1	1671	5271
1	1665	5272
1	1657	5273
1	1649	5274
1	1647	5275
1	1646	5276
1	1644	5277
1	1652	5278
1	1651	5279
1	1655	5280
1	1660	5281
1	1661	5282
1	1659	5283
1	1656	5284
1	1655	5285
1	1648	5286
1	1645	5287
1	1639	5288
1	1634	5289
1	1635	5290
1	1638	5291
1	1645	5292
1	1658	5293
1	1662	5294
1	1661	5295
1	1658	5296
1	1652	5297
1	1656	5298
1	1660	5299
1	1666	5300
1	1673	5301
1	1677	5302
1	1665	5303
1	1663	5304
1	1667	5305
1	1675	5306
1	1685	5307
1	1698	5308
1	1700	5309
1	1700	5310
1	1701	5311
1	1700	5312
1	1700	5313
1	1699	5314
1	1698	5315
1	1692	5316
1	1686	5317
1	1670	5318
1	1660	5319
1	1648	5320
1	1643	5321
1	1639	5322
1	1639	5323
1	1647	5324
1	1650	5325
1	1657	5326
1	1655	5327
1	1652	5328
1	1661	5329
1	1679	5330
1	1694	5331
1	1698	5332
1	1699	5333
1	1698	5334
1	1694	5335
1	1686	5336
1	1679	5337
1	1661	5338
1	1648	5339
1	1634	5340
1	1622	5341
1	1619	5342
1	1610	5343
1	1607	5344
1	1607	5345
1	1610	5346
1	1618	5347
1	1628	5348
1	1636	5349
1	1644	5350
1	1652	5351
1	1664	5352
1	1674	5353
1	1678	5354
1	1679	5355
1	1679	5356
1	1673	5357
1	1670	5358
1	1670	5359
1	1684	5360
1	1700	5361
1	1710	5362
1	1705	5363
1	1699	5364
1	1691	5365
1	1684	5366
1	1674	5367
1	1670	5368
1	1662	5369
1	1663	5370
1	1668	5371
1	1675	5372
1	1681	5373
1	1679	5374
1	1677	5375
1	1678	5376
1	1681	5377
1	1667	5378
1	1664	5379
1	1660	5380
1	1649	5381
1	1643	5382
1	1647	5383
1	1649	5384
1	1650	5385
1	1651	5386
1	1647	5387
1	1643	5388
1	1646	5389
1	1652	5390
1	1660	5391
1	1668	5392
1	1674	5393
1	1683	5394
1	1685	5395
1	1684	5396
1	1682	5397
1	1683	5398
1	1679	5399
1	1672	5400
1	1667	5401
1	1662	5402
1	1656	5403
1	1645	5404
1	1635	5405
1	1631	5406
1	1633	5407
1	1634	5408
1	1647	5409
1	1652	5410
1	1660	5411
1	1661	5412
1	1670	5413
1	1674	5414
1	1681	5415
1	1682	5416
1	1685	5417
1	1687	5418
1	1690	5419
1	1689	5420
1	1689	5421
1	1692	5422
1	1686	5423
1	1683	5424
1	1683	5425
1	1682	5426
1	1683	5427
1	1684	5428
1	1687	5429
1	1688	5430
1	1684	5431
1	1675	5432
1	1686	5433
1	1686	5434
1	1686	5435
1	1686	5436
1	1683	5437
1	1674	5438
1	1668	5439
1	1664	5440
1	1660	5441
1	1656	5442
1	1647	5443
1	1643	5444
1	1639	5445
1	1638	5446
1	1652	5447
1	1661	5448
1	1677	5449
1	1692	5450
1	1707	5451
1	1712	5452
1	1704	5453
1	1701	5454
1	1695	5455
1	1686	5456
1	1681	5457
1	1685	5458
1	1685	5459
1	1685	5460
1	1685	5461
1	1685	5462
1	1686	5463
1	1686	5464
1	1687	5465
1	1689	5466
1	1693	5467
1	1687	5468
1	1687	5469
1	1694	5470
1	1703	5471
1	1710	5472
1	1726	5473
1	1736	5474
1	1736	5475
1	1728	5476
1	1715	5477
1	1707	5478
1	1701	5479
1	1698	5480
1	1692	5481
1	1688	5482
1	1685	5483
1	1688	5484
1	1701	5485
1	1724	5486
1	1750	5487
1	1779	5488
1	1799	5489
1	1821	5490
1	1834	5491
1	1839	5492
1	1842	5493
1	1841	5494
1	1834	5495
1	1828	5496
1	1821	5497
1	1802	5498
1	1791	5499
1	1782	5500
1	1778	5501
1	1776	5502
1	1772	5503
1	1764	5504
1	1755	5505
1	1751	5506
1	1751	5507
1	1750	5508
1	1744	5509
1	1738	5510
1	1737	5511
1	1738	5512
1	1738	5513
1	1740	5514
1	1738	5515
1	1734	5516
1	1724	5517
1	1721	5518
1	1716	5519
1	1715	5520
1	1717	5521
1	1724	5522
1	1724	5523
1	1723	5524
1	1723	5525
1	1722	5526
1	1720	5527
1	1712	5528
1	1707	5529
1	1701	5530
1	1695	5531
1	1686	5532
1	1686	5533
1	1690	5534
1	1705	5535
1	1710	5536
1	1708	5537
1	1697	5538
1	1688	5539
1	1686	5540
1	1679	5541
1	1672	5542
1	1654	5543
1	1638	5544
1	1626	5545
1	1608	5546
1	1597	5547
1	1597	5548
1	1595	5549
1	1600	5550
1	1606	5551
1	1609	5552
1	1623	5553
1	1634	5554
1	1647	5555
1	1658	5556
1	1660	5557
1	1650	5558
1	1644	5559
1	1638	5560
1	1634	5561
1	1634	5562
1	1638	5563
1	1643	5564
1	1639	5565
1	1634	5566
1	1629	5567
1	1625	5568
1	1623	5569
1	1629	5570
1	1633	5571
1	1634	5572
1	1643	5573
1	1652	5574
1	1668	5575
1	1684	5576
1	1693	5577
1	1699	5578
1	1692	5579
1	1677	5580
1	1660	5581
1	1639	5582
1	1621	5583
1	1612	5584
1	1611	5585
1	1618	5586
1	1625	5587
1	1629	5588
1	1635	5589
1	1644	5590
1	1651	5591
1	1656	5592
1	1663	5593
1	1667	5594
1	1664	5595
1	1662	5596
1	1665	5597
1	1672	5598
1	1670	5599
1	1659	5600
1	1646	5601
1	1634	5602
1	1621	5603
1	1616	5604
1	1619	5605
1	1623	5606
1	1631	5607
1	1645	5608
1	1649	5609
1	1656	5610
1	1658	5611
1	1659	5612
1	1660	5613
1	1665	5614
1	1672	5615
1	1685	5616
1	1697	5617
1	1711	5618
1	1721	5619
1	1733	5620
1	1741	5621
1	1749	5622
1	1756	5623
1	1763	5624
1	1764	5625
1	1774	5626
1	1798	5627
1	1827	5628
1	1854	5629
1	1881	5630
1	1911	5631
1	1943	5632
1	1968	5633
1	1987	5634
1	1998	5635
1	2000	5636
1	1996	5637
1	1988	5638
1	1974	5639
1	1962	5640
1	1948	5641
1	1948	5642
1	1948	5643
1	1945	5644
1	1942	5645
1	1943	5646
1	1946	5647
1	1948	5648
1	1957	5649
1	1966	5650
1	1970	5651
1	1968	5652
1	1968	5653
1	1953	5654
1	1934	5655
1	1904	5656
1	1868	5657
1	1821	5658
1	1773	5659
1	1608	5680
1	1615	5681
1	1625	5682
1	1642	5683
1	1656	5684
1	1667	5685
1	1674	5686
1	1683	5687
1	1686	5688
1	1688	5689
1	1688	5690
1	1686	5691
1	1685	5692
1	1669	5693
1	1661	5694
1	1657	5695
1	1654	5696
1	1656	5697
1	1661	5698
1	1661	5699
1	1736	5660
1	1690	5661
1	1646	5662
1	1595	5663
1	1567	5664
1	1542	5665
1	1524	5666
1	1506	5667
1	1507	5668
1	1503	5669
1	1504	5670
1	1510	5671
1	1518	5672
1	1526	5673
1	1531	5674
1	1544	5675
1	1560	5676
1	1574	5677
1	1584	5678
1	1602	5679
1	1665	5700
1	1668	5701
1	1662	5702
1	1662	5703
1	1665	5704
1	1672	5705
1	1674	5706
1	1670	5707
1	1658	5708
1	1651	5709
1	1647	5710
1	1646	5711
1	1645	5712
1	1654	5713
1	1649	5714
1	1647	5715
1	1655	5716
1	1661	5717
1	1673	5718
1	1684	5719
1	1686	5720
1	1687	5721
1	1684	5722
1	1665	5723
1	1659	5724
1	1647	5725
1	1639	5726
1	1638	5727
1	1641	5728
1	1643	5729
1	1649	5730
1	1652	5731
1	1660	5732
1	1664	5733
1	1665	5734
1	1672	5735
1	1677	5736
1	1680	5737
1	1677	5738
1	1674	5739
1	1667	5740
1	1660	5741
1	1647	5742
1	1645	5743
1	1638	5744
1	1648	5745
1	1648	5746
1	1656	5747
1	1659	5748
1	1662	5749
1	1665	5750
1	1670	5751
1	1669	5752
1	1659	5753
1	1656	5754
1	1654	5755
1	1655	5756
1	1657	5757
1	1665	5758
1	1674	5759
1	1676	5760
1	1679	5761
1	1686	5762
1	1699	5763
1	1711	5764
1	1718	5765
1	1717	5766
1	1712	5767
1	1704	5768
1	1700	5769
1	1700	5770
1	1701	5771
1	1701	5772
1	1707	5773
1	1707	5774
1	1701	5775
1	1697	5776
1	1686	5777
1	1683	5778
1	1674	5779
1	1672	5780
1	1672	5781
1	1678	5782
1	1679	5783
1	1686	5784
1	1700	5785
1	1712	5786
1	1719	5787
1	1728	5788
1	1724	5789
1	1720	5790
1	1714	5791
1	1716	5792
1	1718	5793
1	1721	5794
1	1721	5795
1	1722	5796
1	1721	5797
1	1718	5798
1	1716	5799
1	1717	5800
1	1717	5801
1	1724	5802
1	1734	5803
1	1737	5804
1	1736	5805
1	1738	5806
1	1737	5807
1	1734	5808
1	1723	5809
1	1715	5810
1	1715	5811
1	1716	5812
1	1715	5813
1	1718	5814
1	1722	5815
1	1724	5816
1	1729	5817
1	1739	5818
1	1742	5819
1	1740	5820
1	1738	5821
1	1743	5822
1	1750	5823
1	1752	5824
1	1754	5825
1	1755	5826
1	1759	5827
1	1762	5828
1	1764	5829
1	1762	5830
1	1753	5831
1	1744	5832
1	1736	5833
1	1729	5834
1	1730	5835
1	1724	5836
1	1724	5837
1	1720	5838
1	1716	5839
1	1715	5840
1	1720	5841
1	1728	5842
1	1738	5843
1	1739	5844
1	1743	5845
1	1746	5846
1	1750	5847
1	1759	5848
1	1763	5849
1	1769	5850
1	1777	5851
1	1788	5852
1	1794	5853
1	1796	5854
1	1801	5855
1	1800	5856
1	1795	5857
1	1790	5858
1	1789	5859
1	1788	5860
1	1791	5861
1	1791	5862
1	1802	5863
1	1803	5864
1	1801	5865
1	1791	5866
1	1791	5867
1	1795	5868
1	1813	5869
1	1823	5870
1	1834	5871
1	1841	5872
1	1837	5873
1	1842	5874
1	1845	5875
1	1843	5876
1	1841	5877
1	1843	5878
1	1842	5879
1	1835	5880
1	1832	5881
1	1837	5882
1	1849	5883
1	1868	5884
1	1877	5885
1	1876	5886
1	1873	5887
1	1871	5888
1	1869	5889
1	1867	5890
1	1863	5891
1	1867	5892
1	1877	5893
1	1883	5894
1	1893	5895
1	1890	5896
1	1885	5897
1	1878	5898
1	1869	5899
1	1863	5900
1	1856	5901
1	1856	5902
1	1844	5903
1	1841	5904
1	1842	5905
1	1847	5906
1	1858	5907
1	1878	5908
1	1884	5909
1	1886	5910
1	1884	5911
1	1881	5912
1	1881	5913
1	1880	5914
1	1875	5915
1	1872	5916
1	1865	5917
1	1850	5918
1	1845	5919
1	1843	5920
1	1839	5921
1	1830	5922
1	1833	5923
1	1831	5924
1	1839	5925
1	1854	5926
1	1868	5927
1	1872	5928
1	1875	5929
1	1883	5930
1	1890	5931
1	1893	5932
1	1891	5933
1	1881	5934
1	1877	5935
1	1880	5936
1	1886	5937
1	1890	5938
1	1890	5939
1	1893	5940
1	1888	5941
1	1891	5942
1	1883	5943
1	1878	5944
1	1876	5945
1	1875	5946
1	1870	5947
1	1860	5948
1	1856	5949
1	1856	5950
1	1855	5951
1	1848	5952
1	1845	5953
1	1831	5954
1	1821	5955
1	1815	5956
1	1814	5957
1	1816	5958
1	1817	5959
1	1817	5960
1	1812	5961
1	1796	5962
1	1782	5963
1	1778	5964
1	1774	5965
1	1773	5966
1	1765	5967
1	1764	5968
1	1755	5969
1	1749	5970
1	1743	5971
1	1739	5972
1	1737	5973
1	1737	5974
1	1740	5975
1	1752	5976
1	1763	5977
1	1755	5978
1	1747	5979
1	1731	5980
1	1710	5981
1	1687	5982
1	1673	5983
1	1650	5984
1	1639	5985
1	1633	5986
1	1637	5987
1	1638	5988
1	1634	5989
1	1635	5990
1	1643	5991
1	1647	5992
1	1649	5993
1	1658	5994
1	1661	5995
1	1668	5996
1	1670	5997
1	1669	5998
1	1659	5999
1	1648	6000
1	1642	6001
1	1638	6002
1	1638	6003
1	1639	6004
1	1645	6005
1	1650	6006
1	1661	6007
1	1667	6008
1	1672	6009
1	1679	6010
1	1684	6011
1	1680	6012
1	1679	6013
1	1668	6014
1	1659	6015
1	1647	6016
1	1639	6017
1	1630	6018
1	1621	6019
1	1631	6040
1	1634	6041
1	1634	6042
1	1634	6043
1	1631	6044
1	1634	6045
1	1633	6046
1	1637	6047
1	1639	6048
1	1646	6049
1	1652	6050
1	1660	6051
1	1664	6052
1	1661	6053
1	1661	6054
1	1659	6055
1	1651	6056
1	1643	6057
1	1636	6058
1	1626	6059
1	1616	6020
1	1611	6021
1	1613	6022
1	1611	6023
1	1611	6024
1	1615	6025
1	1619	6026
1	1626	6027
1	1643	6028
1	1648	6029
1	1656	6030
1	1660	6031
1	1663	6032
1	1654	6033
1	1647	6034
1	1642	6035
1	1634	6036
1	1633	6037
1	1629	6038
1	1628	6039
1	1616	6060
1	1610	6061
1	1612	6062
1	1618	6063
1	1623	6064
1	1628	6065
1	1629	6066
1	1631	6067
1	1628	6068
1	1628	6069
1	1631	6070
1	1634	6071
1	1642	6072
1	1657	6073
1	1665	6074
1	1669	6075
1	1667	6076
1	1661	6077
1	1659	6078
1	1657	6079
1	1655	6080
1	1660	6081
1	1662	6082
1	1660	6083
1	1656	6084
1	1654	6085
1	1649	6086
1	1653	6087
1	1660	6088
1	1660	6089
1	1661	6090
1	1660	6091
1	1660	6092
1	1656	6093
1	1652	6094
1	1647	6095
1	1644	6096
1	1643	6097
1	1638	6098
1	1635	6099
1	1629	6100
1	1621	6101
1	1613	6102
1	1618	6103
1	1617	6104
1	1620	6105
1	1629	6106
1	1631	6107
1	1636	6108
1	1643	6109
1	1645	6110
1	1651	6111
1	1657	6112
1	1647	6113
1	1645	6114
1	1638	6115
1	1638	6116
1	1638	6117
1	1652	6118
1	1657	6119
1	1660	6120
1	1659	6121
1	1660	6122
1	1656	6123
1	1651	6124
1	1644	6125
1	1644	6126
1	1644	6127
1	1644	6128
1	1647	6129
1	1652	6130
1	1654	6131
1	1657	6132
1	1660	6133
1	1660	6134
1	1661	6135
1	1651	6136
1	1647	6137
1	1638	6138
1	1631	6139
1	1620	6140
1	1613	6141
1	1613	6142
1	1610	6143
1	1615	6144
1	1623	6145
1	1634	6146
1	1638	6147
1	1656	6148
1	1662	6149
1	1667	6150
1	1668	6151
1	1660	6152
1	1652	6153
1	1642	6154
1	1634	6155
1	1631	6156
1	1629	6157
1	1613	6158
1	1607	6159
1	1598	6160
1	1603	6161
1	1607	6162
1	1623	6163
1	1630	6164
1	1628	6165
1	1620	6166
1	1611	6167
1	1608	6168
1	1608	6169
1	1614	6170
1	1616	6171
1	1613	6172
1	1607	6173
1	1612	6174
1	1618	6175
1	1620	6176
1	1619	6177
1	1629	6178
1	1634	6179
1	1643	6180
1	1654	6181
1	1660	6182
1	1664	6183
1	1660	6184
1	1659	6185
1	1651	6186
1	1647	6187
1	1642	6188
1	1636	6189
1	1634	6190
1	1634	6191
1	1631	6192
1	1638	6193
1	1642	6194
1	1644	6195
1	1639	6196
1	1635	6197
1	1633	6198
1	1632	6199
1	1634	6200
1	1637	6201
1	1638	6202
1	1632	6203
1	1622	6204
1	1617	6205
1	1612	6206
1	1607	6207
1	1613	6208
1	1611	6209
1	1609	6210
1	1611	6211
1	1616	6212
1	1623	6213
1	1631	6214
1	1629	6215
1	1628	6216
1	1623	6217
1	1620	6218
1	1621	6219
1	1626	6220
1	1631	6221
1	1631	6222
1	1645	6223
1	1647	6224
1	1652	6225
1	1654	6226
1	1659	6227
1	1649	6228
1	1647	6229
1	1652	6230
1	1660	6231
1	1662	6232
1	1665	6233
1	1673	6234
1	1677	6235
1	1669	6236
1	1647	6237
1	1632	6238
1	1611	6239
1	1600	6240
1	1593	6241
1	1593	6242
1	1592	6243
1	1594	6244
1	1599	6245
1	1609	6246
1	1621	6247
1	1630	6248
1	1634	6249
1	1646	6250
1	1657	6251
1	1665	6252
1	1684	6253
1	1686	6254
1	1686	6255
1	1682	6256
1	1673	6257
1	1664	6258
1	1655	6259
1	1616	6280
1	1607	6281
1	1593	6282
1	1595	6283
1	1597	6284
1	1599	6285
1	1594	6286
1	1606	6287
1	1607	6288
1	1611	6289
1	1618	6290
1	1625	6291
1	1628	6292
1	1621	6293
1	1625	6294
1	1632	6295
1	1634	6296
1	1635	6297
1	1649	6298
1	1656	6299
1	1644	6260
1	1634	6261
1	1630	6262
1	1625	6263
1	1624	6264
1	1628	6265
1	1629	6266
1	1629	6267
1	1642	6268
1	1650	6269
1	1659	6270
1	1662	6271
1	1662	6272
1	1660	6273
1	1660	6274
1	1651	6275
1	1642	6276
1	1638	6277
1	1629	6278
1	1624	6279
1	1659	6300
1	1657	6301
1	1656	6302
1	1651	6303
1	1644	6304
1	1639	6305
1	1639	6306
1	1642	6307
1	1634	6308
1	1634	6309
1	1630	6310
1	1625	6311
1	1615	6312
1	1633	6313
1	1646	6314
1	1660	6315
1	1670	6316
1	1681	6317
1	1686	6318
1	1692	6319
1	1694	6320
1	1690	6321
1	1687	6322
1	1667	6323
1	1656	6324
1	1646	6325
1	1638	6326
1	1634	6327
1	1638	6328
1	1638	6329
1	1644	6330
1	1648	6331
1	1656	6332
1	1651	6333
1	1648	6334
1	1644	6335
1	1638	6336
1	1635	6337
1	1631	6338
1	1623	6339
1	1615	6340
1	1608	6341
1	1606	6342
1	1608	6343
1	1612	6344
1	1625	6345
1	1635	6346
1	1651	6347
1	1662	6348
1	1675	6349
1	1686	6350
1	1693	6351
1	1693	6352
1	1677	6353
1	1662	6354
1	1652	6355
1	1639	6356
1	1622	6357
1	1622	6358
1	1618	6359
1	1612	6360
1	1613	6361
1	1614	6362
1	1616	6363
1	1620	6364
1	1621	6365
1	1625	6366
1	1633	6367
1	1637	6368
1	1648	6369
1	1655	6370
1	1655	6371
1	1647	6372
1	1661	6373
1	1662	6374
1	1667	6375
1	1673	6376
1	1671	6377
1	1662	6378
1	1654	6379
1	1646	6380
1	1639	6381
1	1636	6382
1	1634	6383
1	1634	6384
1	1635	6385
1	1638	6386
1	1634	6387
1	1651	6388
1	1660	6389
1	1673	6390
1	1690	6391
1	1703	6392
1	1712	6393
1	1716	6394
1	1720	6395
1	1723	6396
1	1726	6397
1	1723	6398
1	1718	6399
1	1719	6400
1	1717	6401
1	1703	6402
1	1698	6403
1	1681	6404
1	1664	6405
1	1659	6406
1	1655	6407
1	1651	6408
1	1656	6409
1	1667	6410
1	1683	6411
1	1697	6412
1	1697	6413
1	1695	6414
1	1688	6415
1	1684	6416
1	1671	6417
1	1683	6418
1	1686	6419
1	1697	6420
1	1710	6421
1	1724	6422
1	1734	6423
1	1733	6424
1	1729	6425
1	1727	6426
1	1733	6427
1	1743	6428
1	1755	6429
1	1770	6430
1	1778	6431
1	1782	6432
1	1782	6433
1	1782	6434
1	1783	6435
1	1782	6436
1	1786	6437
1	1775	6438
1	1764	6439
1	1762	6440
1	1754	6441
1	1748	6442
1	1734	6443
1	1724	6444
1	1711	6445
1	1694	6446
1	1677	6447
1	1678	6448
1	1673	6449
1	1670	6450
1	1675	6451
1	1686	6452
1	1696	6453
1	1704	6454
1	1710	6455
1	1712	6456
1	1712	6457
1	1705	6458
1	1701	6459
1	1686	6460
1	1671	6461
1	1651	6462
1	1654	6463
1	1646	6464
1	1641	6465
1	1634	6466
1	1634	6467
1	1632	6468
1	1621	6469
1	1612	6470
1	1606	6471
1	1602	6472
1	1596	6473
1	1600	6474
1	1607	6475
1	1610	6476
1	1606	6477
1	1618	6478
1	1611	6479
1	1607	6480
1	1606	6481
1	1607	6482
1	1606	6483
1	1605	6484
1	1607	6485
1	1606	6486
1	1598	6487
1	1590	6488
1	1589	6489
1	1593	6490
1	1598	6491
1	1604	6492
1	1625	6493
1	1629	6494
1	1634	6495
1	1634	6496
1	1634	6497
1	1628	6498
1	1620	6499
1	1615	6500
1	1611	6501
1	1613	6502
1	1607	6503
1	1598	6504
1	1589	6505
1	1584	6506
1	1579	6507
1	1585	6508
1	1583	6509
1	1581	6510
1	1585	6511
1	1591	6512
1	1593	6513
1	1603	6514
1	1608	6515
1	1613	6516
1	1621	6517
1	1618	6518
1	1615	6519
1	1612	6520
1	1615	6521
1	1616	6522
1	1646	6523
1	1660	6524
1	1665	6525
1	1661	6526
1	1660	6527
1	1659	6528
1	1660	6529
1	1661	6530
1	1656	6531
1	1643	6532
1	1630	6533
1	1619	6534
1	1611	6535
1	1607	6536
1	1594	6537
1	1599	6538
1	1597	6539
1	1600	6540
1	1603	6541
1	1610	6542
1	1613	6543
1	1616	6544
1	1625	6545
1	1634	6546
1	1647	6547
1	1661	6548
1	1674	6549
1	1692	6550
1	1712	6551
1	1724	6552
1	1747	6553
1	1751	6554
1	1760	6555
1	1767	6556
1	1785	6557
1	1800	6558
1	1819	6559
1	1838	6560
1	1856	6561
1	1872	6562
1	1888	6563
1	1895	6564
1	1904	6565
1	1919	6566
1	1923	6567
1	1950	6568
1	1963	6569
1	1976	6570
1	1980	6571
1	1976	6572
1	1968	6573
1	1953	6574
1	1944	6575
1	1927	6576
1	1917	6577
1	1890	6578
1	1872	6579
1	1854	6580
1	1835	6581
1	1812	6582
1	1796	6583
1	1780	6584
1	1763	6585
1	1748	6586
1	1733	6587
1	1711	6588
1	1688	6589
1	1665	6590
1	1638	6591
1	1607	6592
1	1561	6593
1	1530	6594
1	1504	6595
1	1481	6596
1	1461	6597
1	1466	6598
1	1461	6599
1	1458	6600
1	1461	6601
1	1467	6602
1	1476	6603
1	1488	6604
1	1497	6605
1	1510	6606
1	1525	6607
1	1536	6608
1	1549	6609
1	1566	6610
1	1584	6611
1	1594	6612
1	1609	6613
1	1608	6614
1	1607	6615
1	1605	6616
1	1602	6617
1	1604	6618
1	1607	6619
1	1607	6620
1	1607	6621
1	1611	6622
1	1608	6623
1	1609	6624
1	1616	6625
1	1620	6626
1	1618	6627
1	1623	6628
1	1623	6629
1	1632	6630
1	1634	6631
1	1638	6632
1	1636	6633
1	1638	6634
1	1634	6635
1	1633	6636
1	1629	6637
1	1626	6638
1	1620	6639
1	1617	6640
1	1622	6641
1	1626	6642
1	1634	6643
1	1637	6644
1	1638	6645
1	1643	6646
1	1652	6647
1	1652	6648
1	1652	6649
1	1656	6650
1	1656	6651
1	1656	6652
1	1647	6653
1	1647	6654
1	1647	6655
1	1646	6656
1	1642	6657
1	1644	6658
1	1632	6659
1	1625	6660
1	1618	6661
1	1612	6662
1	1612	6663
1	1616	6664
1	1621	6665
1	1630	6666
1	1631	6667
1	1630	6668
1	1630	6669
1	1634	6670
1	1636	6671
1	1636	6672
1	1655	6673
1	1661	6674
1	1670	6675
1	1671	6676
1	1667	6677
1	1661	6678
1	1661	6679
1	1661	6680
1	1656	6681
1	1648	6682
1	1638	6683
1	1634	6684
1	1630	6685
1	1626	6686
1	1620	6687
1	1631	6688
1	1638	6689
1	1649	6690
1	1661	6691
1	1667	6692
1	1674	6693
1	1677	6694
1	1680	6695
1	1685	6696
1	1690	6697
1	1692	6698
1	1696	6699
1	1699	6700
1	1706	6701
1	1712	6702
1	1728	6703
1	1731	6704
1	1726	6705
1	1718	6706
1	1705	6707
1	1687	6708
1	1670	6709
1	1659	6710
1	1652	6711
1	1652	6712
1	1645	6713
1	1643	6714
1	1643	6715
1	1647	6716
1	1655	6717
1	1674	6718
1	1685	6719
1	1686	6720
1	1683	6721
1	1679	6722
1	1674	6723
1	1674	6724
1	1681	6725
1	1684	6726
1	1685	6727
1	1686	6728
1	1688	6729
1	1695	6730
1	1695	6731
1	1691	6732
1	1688	6733
1	1687	6734
1	1695	6735
1	1696	6736
1	1710	6737
1	1712	6738
1	1718	6739
1	1723	6740
1	1726	6741
1	1725	6742
1	1713	6743
1	1710	6744
1	1701	6745
1	1703	6746
1	1706	6747
1	1717	6748
1	1725	6749
1	1733	6750
1	1731	6751
1	1728	6752
1	1729	6753
1	1728	6754
1	1724	6755
1	1728	6756
1	1728	6757
1	1724	6758
1	1716	6759
1	1790	6780
1	1778	6781
1	1770	6782
1	1764	6783
1	1754	6784
1	1751	6785
1	1746	6786
1	1751	6787
1	1760	6788
1	1773	6789
1	1787	6790
1	1791	6791
1	1791	6792
1	1809	6793
1	1814	6794
1	1815	6795
1	1809	6796
1	1791	6797
1	1785	6798
1	1780	6799
1	1712	6760
1	1708	6761
1	1701	6762
1	1703	6763
1	1700	6764
1	1688	6765
1	1688	6766
1	1695	6767
1	1699	6768
1	1709	6769
1	1712	6770
1	1719	6771
1	1724	6772
1	1728	6773
1	1738	6774
1	1751	6775
1	1764	6776
1	1775	6777
1	1791	6778
1	1791	6779
1	1778	6800
1	1782	6801
1	1780	6802
1	1766	6803
1	1754	6804
1	1746	6805
1	1739	6806
1	1738	6807
1	1752	6808
1	1764	6809
1	1778	6810
1	1790	6811
1	1802	6812
1	1819	6813
1	1835	6814
1	1843	6815
1	1845	6816
1	1844	6817
1	1843	6818
1	1843	6819
1	1843	6820
1	1834	6821
1	1820	6822
1	1819	6823
1	1813	6824
1	1799	6825
1	1793	6826
1	1788	6827
1	1777	6828
1	1778	6829
1	1790	6830
1	1799	6831
1	1808	6832
1	1813	6833
1	1813	6834
1	1812	6835
1	1811	6836
1	1809	6837
1	1803	6838
1	1809	6839
1	1801	6840
1	1796	6841
1	1791	6842
1	1790	6843
1	1787	6844
1	1790	6845
1	1791	6846
1	1795	6847
1	1796	6848
1	1803	6849
1	1816	6850
1	1823	6851
1	1834	6852
1	1843	6853
1	1841	6854
1	1836	6855
1	1838	6856
1	1851	6857
1	1858	6858
1	1860	6859
1	1765	6880
1	1764	6881
1	1754	6882
1	1757	6883
1	1755	6884
1	1751	6885
1	1750	6886
1	1746	6887
1	1744	6888
1	1738	6889
1	1736	6890
1	1728	6891
1	1726	6892
1	1718	6893
1	1715	6894
1	1717	6895
1	1722	6896
1	1725	6897
1	1733	6898
1	1731	6899
1	1862	6860
1	1859	6861
1	1848	6862
1	1835	6863
1	1827	6864
1	1816	6865
1	1795	6866
1	1782	6867
1	1773	6868
1	1765	6869
1	1773	6870
1	1790	6871
1	1809	6872
1	1818	6873
1	1824	6874
1	1830	6875
1	1828	6876
1	1816	6877
1	1789	6878
1	1779	6879
1	1724	6900
1	1713	6901
1	1703	6902
1	1686	6903
1	1665	6904
1	1648	6905
1	1637	6906
1	1634	6907
1	1633	6908
1	1638	6909
1	1647	6910
1	1657	6911
1	1656	6912
1	1660	6913
1	1659	6914
1	1660	6915
1	1660	6916
1	1655	6917
1	1647	6918
1	1641	6919
1	1634	6920
1	1626	6921
1	1620	6922
1	1611	6923
1	1607	6924
1	1607	6925
1	1603	6926
1	1605	6927
1	1615	6928
1	1618	6929
1	1618	6930
1	1618	6931
1	1623	6932
1	1631	6933
1	1638	6934
1	1652	6935
1	1660	6936
1	1660	6937
1	1660	6938
1	1655	6939
1	1639	6940
1	1629	6941
1	1617	6942
1	1609	6943
1	1605	6944
1	1605	6945
1	1598	6946
1	1607	6947
1	1600	6948
1	1600	6949
1	1602	6950
1	1608	6951
1	1623	6952
1	1632	6953
1	1623	6954
1	1616	6955
1	1607	6956
1	1603	6957
1	1607	6958
1	1607	6959
1	1616	6980
1	1608	6981
1	1602	6982
1	1595	6983
1	1587	6984
1	1585	6985
1	1593	6986
1	1603	6987
1	1625	6988
1	1644	6989
1	1660	6990
1	1674	6991
1	1685	6992
1	1688	6993
1	1686	6994
1	1678	6995
1	1664	6996
1	1656	6997
1	1646	6998
1	1631	6999
1	1605	6960
1	1605	6961
1	1601	6962
1	1595	6963
1	1591	6964
1	1587	6965
1	1581	6966
1	1575	6967
1	1575	6968
1	1579	6969
1	1584	6970
1	1595	6971
1	1607	6972
1	1621	6973
1	1633	6974
1	1638	6975
1	1643	6976
1	1641	6977
1	1634	6978
1	1625	6979
1	1620	7000
1	1615	7001
1	1613	7002
1	1618	7003
1	1609	7004
1	1602	7005
1	1593	7006
1	1592	7007
1	1596	7008
1	1598	7009
1	1598	7010
1	1593	7011
1	1593	7012
1	1597	7013
1	1598	7014
1	1606	7015
1	1610	7016
1	1616	7017
1	1623	7018
1	1628	7019
1	1628	7020
1	1625	7021
1	1619	7022
1	1609	7023
1	1600	7024
1	1598	7025
1	1605	7026
1	1620	7027
1	1634	7028
1	1635	7029
1	1643	7030
1	1647	7031
1	1652	7032
1	1652	7033
1	1652	7034
1	1649	7035
1	1647	7036
1	1646	7037
1	1644	7038
1	1639	7039
1	1634	7040
1	1625	7041
1	1621	7042
1	1615	7043
1	1612	7044
1	1618	7045
1	1628	7046
1	1634	7047
1	1639	7048
1	1646	7049
1	1655	7050
1	1659	7051
1	1654	7052
1	1645	7053
1	1634	7054
1	1632	7055
1	1626	7056
1	1625	7057
1	1631	7058
1	1629	7059
1	1586	7080
1	1581	7081
1	1584	7082
1	1594	7083
1	1605	7084
1	1607	7085
1	1609	7086
1	1611	7087
1	1610	7088
1	1600	7089
1	1600	7090
1	1607	7091
1	1615	7092
1	1621	7093
1	1618	7094
1	1608	7095
1	1607	7096
1	1606	7097
1	1607	7098
1	1610	7099
1	1631	7060
1	1628	7061
1	1629	7062
1	1636	7063
1	1646	7064
1	1652	7065
1	1652	7066
1	1647	7067
1	1639	7068
1	1632	7069
1	1629	7070
1	1630	7071
1	1632	7072
1	1635	7073
1	1634	7074
1	1634	7075
1	1633	7076
1	1622	7077
1	1620	7078
1	1605	7079
1	1611	7100
1	1615	7101
1	1617	7102
1	1620	7103
1	1609	7104
1	1605	7105
1	1603	7106
1	1607	7107
1	1620	7108
1	1634	7109
1	1644	7110
1	1654	7111
1	1660	7112
1	1660	7113
1	1660	7114
1	1662	7115
1	1660	7116
1	1650	7117
1	1634	7118
1	1611	7119
1	1605	7120
1	1600	7121
1	1597	7122
1	1595	7123
1	1591	7124
1	1587	7125
1	1593	7126
1	1600	7127
1	1607	7128
1	1607	7129
1	1611	7130
1	1619	7131
1	1620	7132
1	1623	7133
1	1630	7134
1	1635	7135
1	1638	7136
1	1638	7137
1	1635	7138
1	1631	7139
1	1620	7140
1	1608	7141
1	1613	7142
1	1611	7143
1	1607	7144
1	1600	7145
1	1596	7146
1	1598	7147
1	1607	7148
1	1608	7149
1	1616	7150
1	1621	7151
1	1623	7152
1	1629	7153
1	1629	7154
1	1629	7155
1	1632	7156
1	1631	7157
1	1629	7158
1	1621	7159
1	1602	7200
1	1607	7201
1	1615	7202
1	1623	7203
1	1632	7204
1	1634	7205
1	1638	7206
1	1643	7207
1	1643	7208
1	1634	7209
1	1634	7210
1	1633	7211
1	1632	7212
1	1634	7213
1	1633	7214
1	1629	7215
1	1625	7216
1	1620	7217
1	1618	7218
1	1621	7219
1	1616	7160
1	1611	7161
1	1607	7162
1	1603	7163
1	1598	7164
1	1605	7165
1	1617	7166
1	1634	7167
1	1649	7168
1	1652	7169
1	1652	7170
1	1657	7171
1	1657	7172
1	1661	7173
1	1661	7174
1	1661	7175
1	1664	7176
1	1670	7177
1	1670	7178
1	1657	7179
1	1651	7180
1	1647	7181
1	1643	7182
1	1647	7183
1	1634	7184
1	1616	7185
1	1602	7186
1	1593	7187
1	1587	7188
1	1586	7189
1	1590	7190
1	1593	7191
1	1605	7192
1	1618	7193
1	1615	7194
1	1615	7195
1	1611	7196
1	1608	7197
1	1613	7198
1	1607	7199
1	1630	7220
1	1634	7221
1	1642	7222
1	1649	7223
1	1648	7224
1	1648	7225
1	1652	7226
1	1657	7227
1	1669	7228
1	1670	7229
1	1673	7230
1	1671	7231
1	1669	7232
1	1665	7233
1	1661	7234
1	1668	7235
1	1668	7236
1	1668	7237
1	1661	7238
1	1659	7239
1	1659	7240
1	1664	7241
1	1679	7242
1	1685	7243
1	1690	7244
1	1694	7245
1	1701	7246
1	1712	7247
1	1712	7248
1	1705	7249
1	1705	7250
1	1711	7251
1	1721	7252
1	1738	7253
1	1744	7254
1	1760	7255
1	1764	7256
1	1767	7257
1	1766	7258
1	1773	7259
1	1769	7260
1	1768	7261
1	1767	7262
1	1764	7263
1	1755	7264
1	1747	7265
1	1738	7266
1	1727	7267
1	1719	7268
1	1701	7269
1	1687	7270
1	1683	7271
1	1686	7272
1	1698	7273
1	1710	7274
1	1718	7275
1	1728	7276
1	1729	7277
1	1724	7278
1	1715	7279
1	1703	7280
1	1694	7281
1	1685	7282
1	1673	7283
1	1660	7284
1	1660	7285
1	1664	7286
1	1671	7287
1	1686	7288
1	1691	7289
1	1700	7290
1	1706	7291
1	1708	7292
1	1712	7293
1	1712	7294
1	1712	7295
1	1707	7296
1	1699	7297
1	1688	7298
1	1669	7299
1	1652	7300
1	1638	7301
1	1629	7302
1	1618	7303
1	1605	7304
1	1593	7305
1	1585	7306
1	1587	7307
1	1594	7308
1	1600	7309
1	1602	7310
1	1599	7311
1	1596	7312
1	1595	7313
1	1585	7314
1	1582	7315
1	1581	7316
1	1580	7317
1	1581	7318
1	1581	7319
1	1636	7340
1	1647	7341
1	1658	7342
1	1661	7343
1	1660	7344
1	1660	7345
1	1655	7346
1	1649	7347
1	1642	7348
1	1636	7349
1	1633	7350
1	1633	7351
1	1634	7352
1	1634	7353
1	1634	7354
1	1633	7355
1	1622	7356
1	1612	7357
1	1610	7358
1	1602	7359
1	1581	7320
1	1577	7321
1	1569	7322
1	1568	7323
1	1574	7324
1	1581	7325
1	1589	7326
1	1603	7327
1	1613	7328
1	1612	7329
1	1616	7330
1	1615	7331
1	1616	7332
1	1620	7333
1	1618	7334
1	1618	7335
1	1623	7336
1	1622	7337
1	1623	7338
1	1631	7339
1	1597	7360
1	1590	7361
1	1583	7362
1	1576	7363
1	1566	7364
1	1557	7365
1	1560	7366
1	1562	7367
1	1566	7368
1	1572	7369
1	1580	7370
1	1591	7371
1	1607	7372
1	1626	7373
1	1634	7374
1	1645	7375
1	1660	7376
1	1676	7377
1	1692	7378
1	1704	7379
1	1709	7380
1	1711	7381
1	1711	7382
1	1714	7383
1	1715	7384
1	1710	7385
1	1696	7386
1	1694	7387
1	1701	7388
1	1713	7389
1	1728	7390
1	1745	7391
1	1764	7392
1	1792	7393
1	1822	7394
1	1844	7395
1	1858	7396
1	1869	7397
1	1877	7398
1	1881	7399
1	1882	7400
1	1878	7401
1	1883	7402
1	1887	7403
1	1877	7404
1	1867	7405
1	1851	7406
1	1839	7407
1	1835	7408
1	1831	7409
1	1835	7410
1	1840	7411
1	1842	7412
1	1837	7413
1	1826	7414
1	1813	7415
1	1791	7416
1	1776	7417
1	1757	7418
1	1728	7419
1	1703	7420
1	1677	7421
1	1654	7422
1	1633	7423
1	1607	7424
1	1580	7425
1	1548	7426
1	1514	7427
1	1486	7428
1	1462	7429
1	1450	7430
1	1443	7431
1	1450	7432
1	1464	7433
1	1469	7434
1	1476	7435
1	1489	7436
1	1503	7437
1	1518	7438
1	1532	7439
1	1548	7440
1	1560	7441
1	1578	7442
1	1583	7443
1	1585	7444
1	1586	7445
1	1584	7446
1	1586	7447
1	1594	7448
1	1594	7449
1	1593	7450
1	1594	7451
1	1598	7452
1	1608	7453
1	1613	7454
1	1616	7455
1	1618	7456
1	1611	7457
1	1607	7458
1	1598	7459
1	1597	7460
1	1600	7461
1	1597	7462
1	1598	7463
1	1594	7464
1	1594	7465
1	1598	7466
1	1602	7467
1	1611	7468
1	1621	7469
1	1633	7470
1	1643	7471
1	1646	7472
1	1644	7473
1	1634	7474
1	1628	7475
1	1621	7476
1	1620	7477
1	1619	7478
1	1607	7479
1	1598	7480
1	1593	7481
1	1591	7482
1	1593	7483
1	1595	7484
1	1605	7485
1	1605	7486
1	1613	7487
1	1616	7488
1	1623	7489
1	1629	7490
1	1636	7491
1	1646	7492
1	1651	7493
1	1647	7494
1	1651	7495
1	1656	7496
1	1660	7497
1	1670	7498
1	1665	7499
1	1661	7500
1	1660	7501
1	1660	7502
1	1659	7503
1	1652	7504
1	1647	7505
1	1646	7506
1	1647	7507
1	1655	7508
1	1654	7509
1	1647	7510
1	1644	7511
1	1639	7512
1	1645	7513
1	1643	7514
1	1645	7515
1	1647	7516
1	1647	7517
1	1645	7518
1	1640	7519
1	1658	7540
1	1654	7541
1	1659	7542
1	1671	7543
1	1688	7544
1	1701	7545
1	1708	7546
1	1717	7547
1	1717	7548
1	1715	7549
1	1713	7550
1	1713	7551
1	1706	7552
1	1692	7553
1	1670	7554
1	1652	7555
1	1641	7556
1	1634	7557
1	1634	7558
1	1629	7559
1	1639	7520
1	1644	7521
1	1639	7522
1	1634	7523
1	1621	7524
1	1611	7525
1	1606	7526
1	1607	7527
1	1616	7528
1	1625	7529
1	1634	7530
1	1646	7531
1	1654	7532
1	1660	7533
1	1662	7534
1	1670	7535
1	1676	7536
1	1676	7537
1	1674	7538
1	1664	7539
1	1623	7560
1	1623	7561
1	1626	7562
1	1633	7563
1	1643	7564
1	1656	7565
1	1661	7566
1	1673	7567
1	1686	7568
1	1688	7569
1	1698	7570
1	1706	7571
1	1715	7572
1	1733	7573
1	1740	7574
1	1743	7575
1	1741	7576
1	1736	7577
1	1733	7578
1	1737	7579
1	1738	7580
1	1738	7581
1	1737	7582
1	1733	7583
1	1725	7584
1	1724	7585
1	1728	7586
1	1729	7587
1	1738	7588
1	1738	7589
1	1734	7590
1	1729	7591
1	1725	7592
1	1713	7593
1	1697	7594
1	1679	7595
1	1668	7596
1	1670	7597
1	1674	7598
1	1674	7599
1	1686	7600
1	1698	7601
1	1708	7602
1	1720	7603
1	1725	7604
1	1729	7605
1	1738	7606
1	1746	7607
1	1759	7608
1	1764	7609
1	1767	7610
1	1775	7611
1	1777	7612
1	1774	7613
1	1764	7614
1	1764	7615
1	1764	7616
1	1757	7617
1	1760	7618
1	1757	7619
1	1752	7620
1	1739	7621
1	1727	7622
1	1716	7623
1	1712	7624
1	1709	7625
1	1710	7626
1	1713	7627
1	1721	7628
1	1731	7629
1	1746	7630
1	1763	7631
1	1764	7632
1	1767	7633
1	1775	7634
1	1785	7635
1	1792	7636
1	1817	7637
1	1829	7638
1	1835	7639
1	1841	7640
1	1841	7641
1	1836	7642
1	1834	7643
1	1823	7644
1	1816	7645
1	1802	7646
1	1792	7647
1	1791	7648
1	1788	7649
1	1796	7650
1	1817	7651
1	1832	7652
1	1844	7653
1	1854	7654
1	1855	7655
1	1852	7656
1	1843	7657
1	1836	7658
1	1818	7659
1	1814	7660
1	1803	7661
1	1803	7662
1	1816	7663
1	1817	7664
1	1819	7665
1	1823	7666
1	1817	7667
1	1816	7668
1	1814	7669
1	1816	7670
1	1822	7671
1	1827	7672
1	1826	7673
1	1817	7674
1	1812	7675
1	1798	7676
1	1793	7677
1	1796	7678
1	1800	7679
1	1798	7680
1	1798	7681
1	1801	7682
1	1809	7683
1	1817	7684
1	1819	7685
1	1815	7686
1	1812	7687
1	1813	7688
1	1816	7689
1	1817	7690
1	1821	7691
1	1832	7692
1	1843	7693
1	1843	7694
1	1839	7695
1	1836	7696
1	1828	7697
1	1822	7698
1	1817	7699
1	1812	7700
1	1801	7701
1	1796	7702
1	1791	7703
1	1778	7704
1	1773	7705
1	1773	7706
1	1775	7707
1	1783	7708
1	1787	7709
1	1787	7710
1	1784	7711
1	1782	7712
1	1789	7713
1	1796	7714
1	1803	7715
1	1815	7716
1	1817	7717
1	1818	7718
1	1800	7719
1	1782	7720
1	1760	7721
1	1742	7722
1	1733	7723
1	1717	7724
1	1703	7725
1	1691	7726
1	1692	7727
1	1692	7728
1	1686	7729
1	1686	7730
1	1686	7731
1	1684	7732
1	1680	7733
1	1668	7734
1	1657	7735
1	1647	7736
1	1642	7737
1	1634	7738
1	1623	7739
1	1620	7740
1	1613	7741
1	1621	7742
1	1616	7743
1	1616	7744
1	1620	7745
1	1625	7746
1	1625	7747
1	1619	7748
1	1608	7749
1	1607	7750
1	1607	7751
1	1605	7752
1	1609	7753
1	1613	7754
1	1622	7755
1	1632	7756
1	1634	7757
1	1634	7758
1	1620	7759
1	1607	7760
1	1589	7761
1	1581	7762
1	1578	7763
1	1575	7764
1	1579	7765
1	1585	7766
1	1593	7767
1	1603	7768
1	1611	7769
1	1623	7770
1	1623	7771
1	1621	7772
1	1621	7773
1	1617	7774
1	1612	7775
1	1607	7776
1	1599	7777
1	1592	7778
1	1580	7779
1	1569	7780
1	1563	7781
1	1561	7782
1	1567	7783
1	1571	7784
1	1573	7785
1	1573	7786
1	1582	7787
1	1586	7788
1	1594	7789
1	1602	7790
1	1605	7791
1	1607	7792
1	1619	7793
1	1618	7794
1	1620	7795
1	1629	7796
1	1634	7797
1	1643	7798
1	1637	7799
1	1629	7800
1	1618	7801
1	1608	7802
1	1602	7803
1	1598	7804
1	1595	7805
1	1589	7806
1	1587	7807
1	1592	7808
1	1587	7809
1	1589	7810
1	1589	7811
1	1585	7812
1	1590	7813
1	1583	7814
1	1581	7815
1	1579	7816
1	1570	7817
1	1562	7818
1	1555	7819
1	1555	7820
1	1557	7821
1	1569	7822
1	1583	7823
1	1592	7824
1	1599	7825
1	1607	7826
1	1605	7827
1	1608	7828
1	1604	7829
1	1590	7830
1	1590	7831
1	1585	7832
1	1581	7833
1	1569	7834
1	1566	7835
1	1566	7836
1	1576	7837
1	1585	7838
1	1596	7839
1	1607	7840
1	1616	7841
1	1622	7842
1	1621	7843
1	1625	7844
1	1636	7845
1	1639	7846
1	1652	7847
1	1656	7848
1	1661	7849
1	1665	7850
1	1670	7851
1	1669	7852
1	1662	7853
1	1647	7854
1	1634	7855
1	1618	7856
1	1607	7857
1	1598	7858
1	1592	7859
1	1587	7860
1	1587	7861
1	1594	7862
1	1602	7863
1	1609	7864
1	1622	7865
1	1634	7866
1	1642	7867
1	1652	7868
1	1647	7869
1	1644	7870
1	1644	7871
1	1646	7872
1	1651	7873
1	1650	7874
1	1641	7875
1	1634	7876
1	1622	7877
1	1615	7878
1	1607	7879
1	1597	7880
1	1583	7881
1	1580	7882
1	1579	7883
1	1581	7884
1	1583	7885
1	1584	7886
1	1590	7887
1	1595	7888
1	1597	7889
1	1605	7890
1	1610	7891
1	1616	7892
1	1622	7893
1	1624	7894
1	1622	7895
1	1617	7896
1	1607	7897
1	1598	7898
1	1584	7899
1	1579	7900
1	1575	7901
1	1577	7902
1	1581	7903
1	1580	7904
1	1576	7905
1	1575	7906
1	1582	7907
1	1593	7908
1	1603	7909
1	1618	7910
1	1634	7911
1	1641	7912
1	1639	7913
1	1629	7914
1	1618	7915
1	1609	7916
1	1603	7917
1	1597	7918
1	1592	7919
1	1589	7920
1	1582	7921
1	1580	7922
1	1574	7923
1	1569	7924
1	1566	7925
1	1565	7926
1	1562	7927
1	1562	7928
1	1560	7929
1	1564	7930
1	1573	7931
1	1584	7932
1	1593	7933
1	1598	7934
1	1615	7935
1	1616	7936
1	1629	7937
1	1632	7938
1	1634	7939
1	1633	7940
1	1630	7941
1	1623	7942
1	1616	7943
1	1598	7944
1	1592	7945
1	1585	7946
1	1583	7947
1	1589	7948
1	1590	7949
1	1593	7950
1	1596	7951
1	1602	7952
1	1615	7953
1	1626	7954
1	1634	7955
1	1634	7956
1	1626	7957
1	1620	7958
1	1607	7959
1	1631	7980
1	1616	7981
1	1607	7982
1	1596	7983
1	1584	7984
1	1576	7985
1	1561	7986
1	1559	7987
1	1571	7988
1	1585	7989
1	1600	7990
1	1616	7991
1	1625	7992
1	1634	7993
1	1632	7994
1	1634	7995
1	1638	7996
1	1638	7997
1	1634	7998
1	1629	7999
1	1597	7960
1	1589	7961
1	1581	7962
1	1578	7963
1	1572	7964
1	1569	7965
1	1566	7966
1	1564	7967
1	1561	7968
1	1566	7969
1	1577	7970
1	1583	7971
1	1593	7972
1	1605	7973
1	1606	7974
1	1612	7975
1	1625	7976
1	1634	7977
1	1644	7978
1	1638	7979
1	1625	8000
1	1620	8000
1	1611	8002
1	1599	8003
1	1581	8004
1	1572	8005
1	1569	8006
1	1565	8007
1	1564	8008
1	1559	8009
1	1566	8010
1	1577	8011
1	1592	8012
1	1607	8013
1	1616	8013
1	1620	8015
1	1625	8016
1	1633	8016
1	1634	8018
1	1634	8019
1	1633	8020
1	1632	8021
1	1634	8022
1	1635	8023
1	1634	8024
1	1632	8025
1	1631	8026
1	1629	8027
1	1632	8028
1	1625	8029
1	1622	8029
1	1619	8031
1	1617	8032
1	1611	8032
1	1603	8034
1	1597	8035
1	1595	8036
1	1602	8037
1	1607	8038
1	1610	8039
1	1626	8040
1	1624	8041
1	1634	8042
1	1628	8043
1	1625	8044
1	1622	8045
1	1628	8045
1	1631	8047
1	1634	8048
1	1632	8048
1	1634	8050
1	1634	8051
1	1635	8052
1	1647	8053
1	1651	8054
1	1655	8055
1	1652	8056
1	1651	8057
1	1647	8058
1	1635	8059
1	1699	8100
1	1695	8101
1	1700	8102
1	1705	8103
1	1717	8104
1	1724	8105
1	1728	8106
1	1728	8106
1	1728	8108
1	1723	8109
1	1724	8109
1	1731	8111
1	1742	8112
1	1764	8113
1	1778	8114
1	1791	8115
1	1800	8116
1	1802	8117
1	1798	8118
1	1791	8119
1	1652	8080
1	1647	8080
1	1644	8082
1	1648	8083
1	1656	8084
1	1669	8085
1	1679	8086
1	1688	8087
1	1692	8088
1	1698	8089
1	1705	8090
1	1712	8090
1	1716	8092
1	1717	8093
1	1712	8093
1	1712	8095
1	1712	8096
1	1711	8096
1	1712	8098
1	1701	8099
1	1613	8060
1	1599	8061
1	1587	8061
1	1573	8063
1	1555	8064
1	1550	8064
1	1553	8066
1	1565	8067
1	1593	8068
1	1618	8069
1	1643	8070
1	1664	8071
1	1677	8072
1	1685	8073
1	1687	8074
1	1684	8074
1	1677	8076
1	1669	8077
1	1662	8077
1	1656	8079
1	1782	8120
1	1773	8121
1	1764	8122
1	1752	8122
1	1740	8124
1	1733	8125
1	1727	8125
1	1721	8127
1	1729	8128
1	1721	8129
1	1724	8130
1	1725	8131
1	1721	8132
1	1732	8133
1	1724	8134
1	1719	8135
1	1712	8136
1	1710	8137
1	1708	8138
1	1712	8138
1	1724	8140
1	1734	8141
1	1733	8141
1	1729	8143
1	1717	8144
1	1710	8145
1	1706	8146
1	1710	8147
1	1716	8148
1	1726	8149
1	1737	8150
1	1742	8151
1	1748	8152
1	1751	8153
1	1753	8154
1	1757	8154
1	1751	8156
1	1736	8157
1	1712	8157
1	1684	8159
1	1659	8160
1	1634	8161
1	1621	8162
1	1606	8163
1	1596	8164
1	1594	8165
1	1596	8166
1	1607	8167
1	1620	8168
1	1629	8169
1	1642	8170
1	1652	8170
1	1661	8172
1	1677	8173
1	1687	8173
1	1704	8175
1	1718	8176
1	1728	8177
1	1736	8178
1	1737	8179
1	1735	8180
1	1730	8181
1	1723	8182
1	1715	8183
1	1702	8184
1	1694	8185
1	1685	8186
1	1680	8186
1	1686	8188
1	1694	8189
1	1705	8189
1	1715	8191
1	1716	8192
1	1716	8193
1	1717	8194
1	1713	8195
1	1710	8196
1	1701	8197
1	1697	8198
1	1692	8199
1	1688	8200
1	1687	8201
1	1694	8202
1	1712	8203
1	1717	8204
1	1719	8205
1	1716	8206
1	1712	8207
1	1715	8208
1	1718	8209
1	1715	8210
1	1713	8211
1	1716	8212
1	1722	8213
1	1723	8214
1	1724	8215
1	1729	8216
1	1738	8217
1	1750	8218
1	1757	8219
1	1931	8240
1	1948	8241
1	1965	8242
1	1987	8243
1	2000	8244
1	2016	8245
1	2030	8246
1	2050	8247
1	2061	8248
1	2070	8249
1	2079	8250
1	2093	8251
1	2110	8252
1	2130	8253
1	2149	8254
1	2165	8255
1	2182	8256
1	2187	8257
1	2183	8258
1	2170	8259
1	1766	8220
1	1777	8221
1	1780	8222
1	1781	8223
1	1787	8224
1	1796	8225
1	1811	8226
1	1821	8227
1	1830	8228
1	1832	8229
1	1838	8230
1	1843	8231
1	1845	8232
1	1854	8233
1	1857	8234
1	1869	8235
1	1869	8236
1	1886	8237
1	1899	8238
1	1916	8239
1	2153	8260
1	2133	8261
1	2118	8262
1	2108	8263
1	2094	8264
1	2076	8265
1	2052	8266
1	2025	8267
1	1991	8268
1	1950	8269
1	1910	8270
1	1875	8271
1	1841	8272
1	1795	8273
1	1753	8274
1	1728	8275
1	1713	8276
1	1707	8277
1	1705	8278
1	1699	8279
1	1863	8300
1	1864	8301
1	1867	8302
1	1871	8303
1	1871	8304
1	1870	8305
1	1875	8306
1	1880	8307
1	1886	8308
1	1883	8309
1	1881	8310
1	1874	8311
1	1869	8312
1	1864	8313
1	1859	8314
1	1858	8315
1	1857	8316
1	1863	8317
1	1871	8318
1	1869	8319
1	1688	8280
1	1679	8281
1	1673	8282
1	1672	8283
1	1683	8284
1	1697	8285
1	1703	8286
1	1713	8287
1	1727	8288
1	1739	8289
1	1755	8290
1	1773	8291
1	1791	8292
1	1821	8293
1	1837	8294
1	1844	8295
1	1851	8296
1	1854	8297
1	1859	8298
1	1863	8299
1	1903	8340
1	1895	8341
1	1895	8342
1	1893	8343
1	1891	8344
1	1891	8345
1	1886	8346
1	1885	8347
1	1890	8348
1	1895	8349
1	1908	8350
1	1922	8351
1	1933	8352
1	1946	8353
1	1944	8354
1	1940	8355
1	1934	8356
1	1925	8357
1	1913	8358
1	1908	8359
1	1870	8320
1	1872	8321
1	1870	8322
1	1873	8323
1	1870	8324
1	1869	8325
1	1869	8326
1	1869	8327
1	1870	8328
1	1872	8329
1	1887	8330
1	1896	8331
1	1904	8332
1	1913	8333
1	1920	8334
1	1918	8335
1	1916	8336
1	1911	8337
1	1908	8338
1	1908	8339
1	1904	8360
1	1905	8361
1	1906	8362
1	1912	8363
1	1911	8364
1	1916	8365
1	1922	8366
1	1934	8367
1	1951	8368
1	1961	8369
1	1967	8370
1	1972	8371
1	1973	8372
1	1972	8373
1	1967	8374
1	1962	8375
1	1957	8376
1	1952	8377
1	1949	8378
1	1946	8379
1	1945	8380
1	1947	8381
1	1948	8382
1	1956	8383
1	1956	8384
1	1953	8385
1	1958	8386
1	1961	8387
1	1952	8388
1	1949	8389
1	1947	8390
1	1949	8391
1	1952	8392
1	1962	8393
1	1972	8394
1	1976	8395
1	1978	8396
1	1980	8397
1	1989	8398
1	1994	8399
1	1997	8400
1	1999	8401
1	2005	8402
1	2016	8403
1	2025	8404
1	2030	8405
1	2028	8406
1	2026	8407
1	2026	8408
1	2021	8409
1	2022	8410
1	2024	8411
1	2026	8412
1	2039	8413
1	2045	8414
1	2047	8415
1	2047	8416
1	2044	8417
1	2045	8418
1	2051	8419
1	2054	8420
1	2058	8421
1	2060	8422
1	2055	8423
1	2050	8424
1	2052	8425
1	2052	8426
1	2051	8427
1	2058	8428
1	2061	8429
1	2052	8430
1	2065	8431
1	2073	8432
1	2081	8433
1	2081	8434
1	2087	8435
1	2093	8436
1	2094	8437
1	2100	8438
1	2097	8439
1	2093	8440
1	2089	8441
1	2083	8442
1	2078	8443
1	2079	8444
1	2079	8445
1	2079	8446
1	2093	8447
1	2099	8448
1	2105	8449
1	2109	8450
1	2120	8451
1	2132	8452
1	2145	8453
1	2150	8454
1	2161	8455
1	2171	8456
1	2182	8457
1	2188	8458
1	2185	8459
1	2179	8460
1	2168	8461
1	2159	8462
1	2157	8463
1	2150	8464
1	2136	8465
1	2132	8466
1	2132	8467
1	2137	8468
1	2133	8469
1	2133	8470
1	2136	8471
1	2142	8472
1	2153	8473
1	2156	8474
1	2157	8475
1	2161	8476
1	2169	8477
1	2173	8478
1	2171	8479
1	2170	8480
1	2170	8481
1	2176	8482
1	2183	8483
1	2186	8484
1	2192	8485
1	2196	8486
1	2202	8487
1	2219	8488
1	2236	8489
1	2251	8490
1	2262	8491
1	2275	8492
1	2287	8493
1	2296	8494
1	2305	8495
1	2314	8496
1	2314	8497
1	2314	8498
1	2309	8499
1	2303	8500
1	2292	8501
1	2279	8502
1	2281	8503
1	2277	8504
1	2276	8505
1	2275	8506
1	2277	8507
1	2276	8508
1	2274	8509
1	2271	8510
1	2268	8511
1	2270	8512
1	2273	8513
1	2276	8514
1	2293	8515
1	2312	8516
1	2320	8517
1	2337	8518
1	2345	8519
1	2336	8540
1	2327	8541
1	2314	8542
1	2299	8543
1	2278	8544
1	2269	8545
1	2262	8546
1	2261	8547
1	2271	8548
1	2275	8549
1	2282	8550
1	2293	8551
1	2309	8552
1	2323	8553
1	2336	8554
1	2338	8555
1	2340	8556
1	2343	8557
1	2350	8558
1	2351	8559
1	2350	8520
1	2346	8521
1	2342	8522
1	2340	8523
1	2331	8524
1	2322	8525
1	2304	8526
1	2289	8527
1	2281	8528
1	2276	8529
1	2286	8530
1	2302	8531
1	2314	8532
1	2346	8533
1	2367	8534
1	2375	8535
1	2372	8536
1	2372	8537
1	2359	8538
1	2344	8539
1	2359	8560
1	2359	8561
1	2354	8562
1	2357	8563
1	2348	8564
1	2341	8565
1	2338	8566
1	2333	8567
1	2327	8568
1	2324	8569
1	2316	8570
1	2306	8571
1	2292	8572
1	2277	8573
1	2257	8574
1	2244	8575
1	2237	8576
1	2236	8577
1	2237	8578
1	2235	8579
1	2189	8600
1	2184	8601
1	2179	8602
1	2173	8603
1	2163	8604
1	2158	8605
1	2161	8606
1	2171	8607
1	2187	8608
1	2192	8609
1	2195	8610
1	2192	8611
1	2184	8612
1	2179	8613
1	2170	8614
1	2168	8615
1	2168	8616
1	2169	8617
1	2170	8618
1	2159	8619
1	2228	8580
1	2219	8581
1	2210	8582
1	2209	8583
1	2210	8584
1	2219	8585
1	2235	8586
1	2242	8587
1	2242	8588
1	2238	8589
1	2222	8590
1	2205	8591
1	2188	8592
1	2183	8593
1	2170	8594
1	2168	8595
1	2170	8596
1	2174	8597
1	2183	8598
1	2188	8599
1	2153	8620
1	2147	8621
1	2149	8622
1	2161	8623
1	2170	8624
1	2182	8625
1	2189	8626
1	2195	8627
1	2200	8628
1	2198	8629
1	2208	8630
1	2210	8631
1	2212	8632
1	2214	8633
1	2214	8634
1	2210	8635
1	2195	8636
1	2179	8637
1	2162	8638
1	2148	8639
1	2133	8640
1	2127	8641
1	2131	8642
1	2131	8643
1	2133	8644
1	2133	8645
1	2132	8646
1	2133	8647
1	2142	8648
1	2149	8649
1	2169	8650
1	2184	8651
1	2210	8652
1	2236	8653
1	2242	8654
1	2238	8655
1	2234	8656
1	2228	8657
1	2230	8658
1	2232	8659
1	2234	8660
1	2233	8661
1	2220	8662
1	2206	8663
1	2175	8664
1	2155	8665
1	2132	8666
1	2123	8667
1	2129	8668
1	2133	8669
1	2146	8670
1	2162	8671
1	2181	8672
1	2194	8673
1	2206	8674
1	2212	8675
1	2221	8676
1	2234	8677
1	2236	8678
1	2222	8679
1	2211	8680
1	2206	8681
1	2197	8682
1	2195	8683
1	2188	8684
1	2183	8685
1	2178	8686
1	2171	8687
1	2157	8688
1	2148	8689
1	2149	8690
1	2155	8691
1	2159	8692
1	2169	8693
1	2179	8694
1	2188	8695
1	2197	8696
1	2206	8697
1	2210	8698
1	2210	8699
1	2209	8700
1	2202	8701
1	2199	8702
1	2199	8703
1	2196	8704
1	2189	8705
1	2181	8706
1	2174	8707
1	2171	8708
1	2170	8709
1	2176	8710
1	2182	8711
1	2189	8712
1	2207	8713
1	2215	8714
1	2235	8715
1	2249	8716
1	2261	8717
1	2268	8718
1	2274	8719
1	2270	8720
1	2260	8721
1	2242	8722
1	2228	8723
1	2210	8724
1	2207	8725
1	2196	8726
1	2183	8727
1	2183	8728
1	2181	8729
1	2170	8730
1	2171	8731
1	2173	8732
1	2178	8733
1	2183	8734
1	2185	8735
1	2192	8736
1	2198	8737
1	2206	8738
1	2210	8739
1	2219	8740
1	2217	8741
1	2213	8742
1	2209	8743
1	2206	8744
1	2206	8745
1	2201	8746
1	2208	8747
1	2201	8748
1	2192	8749
1	2189	8750
1	2189	8751
1	2198	8752
1	2210	8753
1	2210	8754
1	2210	8755
1	2210	8756
1	2211	8757
1	2215	8758
1	2209	8759
1	2197	8760
1	2183	8761
1	2173	8762
1	2163	8763
1	2158	8764
1	2156	8765
1	2155	8766
1	2157	8767
1	2159	8768
1	2155	8769
1	2153	8770
1	2152	8771
1	2153	8772
1	2163	8773
1	2171	8774
1	2182	8775
1	2188	8776
1	2191	8777
1	2197	8778
1	2209	8779
1	2235	8780
1	2261	8781
1	2288	8782
1	2309	8783
1	2313	8784
1	2309	8785
1	2289	8786
1	2266	8787
1	2243	8788
1	2210	8789
1	2179	8790
1	2157	8791
1	2147	8792
1	2147	8793
1	2157	8794
1	2170	8795
1	2183	8796
1	2192	8797
1	2199	8798
1	2197	8799
1	2196	8800
1	2184	8801
1	2172	8802
1	2161	8803
1	2153	8804
1	2148	8805
1	2140	8806
1	2143	8807
1	2146	8808
1	2152	8809
1	2153	8810
1	2159	8811
1	2170	8812
1	2183	8813
1	2197	8814
1	2215	8815
1	2235	8816
1	2251	8817
1	2263	8818
1	2266	8819
1	2270	8820
1	2267	8821
1	2260	8822
1	2250	8823
1	2243	8824
1	2236	8825
1	2222	8826
1	2209	8827
1	2188	8828
1	2180	8829
1	2176	8830
1	2176	8831
1	2179	8832
1	2183	8833
1	2192	8834
1	2205	8835
1	2210	8836
1	2234	8837
1	2234	8838
1	2219	8839
1	2202	8840
1	2188	8841
1	2184	8842
1	2183	8843
1	2191	8844
1	2202	8845
1	2208	8846
1	2213	8847
1	2222	8848
1	2222	8849
1	2222	8850
1	2219	8851
1	2211	8852
1	2210	8853
1	2210	8854
1	2209	8855
1	2208	8856
1	2207	8857
1	2196	8858
1	2189	8859
1	2210	8880
1	2208	8881
1	2201	8882
1	2196	8883
1	2186	8884
1	2174	8885
1	2161	8886
1	2149	8887
1	2131	8888
1	2124	8889
1	2120	8890
1	2126	8891
1	2135	8892
1	2156	8893
1	2165	8894
1	2171	8895
1	2178	8896
1	2184	8897
1	2189	8898
1	2195	8899
1	2183	8860
1	2179	8861
1	2174	8862
1	2181	8863
1	2181	8864
1	2187	8865
1	2197	8866
1	2209	8867
1	2211	8868
1	2215	8869
1	2220	8870
1	2231	8871
1	2234	8872
1	2221	8873
1	2222	8874
1	2222	8875
1	2215	8876
1	2215	8877
1	2219	8878
1	2218	8879
1	2196	8900
1	2197	8901
1	2197	8902
1	2191	8903
1	2192	8904
1	2199	8905
1	2202	8906
1	2209	8907
1	2218	8908
1	2217	8909
1	2219	8910
1	2222	8911
1	2233	8912
1	2236	8913
1	2243	8914
1	2247	8915
1	2247	8916
1	2244	8917
1	2222	8918
1	2205	8919
1	2183	8920
1	2168	8921
1	2157	8922
1	2156	8923
1	2150	8924
1	2152	8925
1	2153	8926
1	2157	8927
1	2170	8928
1	2174	8929
1	2183	8930
1	2187	8931
1	2197	8932
1	2209	8933
1	2215	8934
1	2220	8935
1	2222	8936
1	2233	8937
1	2222	8938
1	2222	8939
1	2222	8940
1	2228	8941
1	2237	8942
1	2244	8943
1	2251	8944
1	2260	8945
1	2262	8946
1	2254	8947
1	2236	8948
1	2214	8949
1	2197	8950
1	2184	8951
1	2184	8952
1	2197	8953
1	2201	8954
1	2209	8955
1	2217	8956
1	2228	8957
1	2235	8958
1	2236	8959
1	2236	8960
1	2236	8961
1	2236	8962
1	2231	8963
1	2218	8964
1	2215	8965
1	2215	8966
1	2221	8967
1	2237	8968
1	2237	8969
1	2243	8970
1	2242	8971
1	2237	8972
1	2236	8973
1	2236	8974
1	2233	8975
1	2228	8976
1	2222	8977
1	2210	8978
1	2199	8979
1	2184	9000
1	2183	9001
1	2179	9002
1	2174	9003
1	2170	9004
1	2165	9005
1	2160	9006
1	2157	9007
1	2142	9008
1	2131	9009
1	2128	9010
1	2128	9011
1	2129	9012
1	2126	9013
1	2117	9014
1	2106	9015
1	2105	9016
1	2107	9017
1	2114	9018
1	2122	9019
1	2191	8980
1	2186	8981
1	2188	8982
1	2201	8983
1	2203	8984
1	2202	8985
1	2198	8986
1	2188	8987
1	2179	8988
1	2166	8989
1	2160	8990
1	2157	8991
1	2161	8992
1	2165	8993
1	2174	8994
1	2179	8995
1	2182	8996
1	2183	8997
1	2193	8998
1	2188	8999
1	2130	9020
1	2128	9021
1	2122	9022
1	2105	9023
1	2096	9024
1	2089	9025
1	2080	9026
1	2084	9027
1	2101	9028
1	2106	9029
1	2101	9030
1	2105	9031
1	2106	9032
1	2104	9033
1	2094	9034
1	2090	9035
1	2089	9036
1	2091	9037
1	2094	9038
1	2092	9039
1	2079	9040
1	2058	9041
1	2037	9042
1	2018	9043
1	2000	9044
1	2000	9045
1	2000	9046
1	2011	9047
1	2014	9048
1	2021	9049
1	2029	9050
1	2039	9051
1	2048	9052
1	2052	9053
1	2061	9054
1	2068	9055
1	2076	9056
1	2084	9057
1	2097	9058
1	2102	9059
1	2102	9060
1	2102	9061
1	2097	9062
1	2089	9063
1	2081	9064
1	2075	9065
1	2061	9066
1	2052	9067
1	2039	9068
1	2036	9069
1	2034	9070
1	2038	9071
1	2045	9072
1	2053	9073
1	2057	9074
1	2063	9075
1	2066	9076
1	2063	9077
1	2065	9078
1	2069	9079
1	2071	9080
1	2075	9081
1	2079	9082
1	2078	9083
1	2070	9084
1	2068	9085
1	2071	9086
1	2080	9087
1	2106	9088
1	2131	9089
1	2153	9090
1	2170	9091
1	2183	9092
1	2189	9093
1	2192	9094
1	2197	9095
1	2208	9096
1	2221	9097
1	2222	9098
1	2236	9099
1	2245	9100
1	2257	9101
1	2266	9102
1	2284	9103
1	2292	9104
1	2310	9105
1	2329	9106
1	2351	9107
1	2371	9108
1	2393	9109
1	2417	9110
1	2438	9111
1	2451	9112
1	2449	9113
1	2446	9114
1	2436	9115
1	2425	9116
1	2412	9117
1	2403	9118
1	2386	9119
1	2367	9120
1	2348	9121
1	2330	9122
1	2309	9123
1	2281	9124
1	2251	9125
1	2210	9126
1	2163	9127
1	2118	9128
1	2079	9129
1	2034	9130
1	1993	9131
1	1949	9132
1	1913	9133
1	1884	9134
1	1861	9135
1	1852	9136
1	1854	9137
1	1854	9138
1	1861	9139
1	1873	9140
1	1891	9141
1	1908	9142
1	1919	9143
1	1932	9144
1	1945	9145
1	1956	9146
1	1972	9147
1	1987	9148
1	1994	9149
1	1992	9150
1	1989	9151
1	1985	9152
1	1985	9153
1	1996	9154
1	2004	9155
1	2012	9156
1	2016	9157
1	2000	9158
1	1986	9159
1	1973	9160
1	1951	9161
1	1934	9162
1	1926	9163
1	1916	9164
1	1908	9165
1	1908	9166
1	1907	9167
1	1909	9168
1	1918	9169
1	1930	9170
1	1944	9171
1	1957	9172
1	1959	9173
1	1958	9174
1	1950	9175
1	1948	9176
1	1948	9177
1	1953	9178
1	1955	9179
1	1955	9180
1	1959	9181
1	1961	9182
1	1965	9183
1	1971	9184
1	1975	9185
1	1979	9186
1	1980	9187
1	1975	9188
1	1974	9189
1	1970	9190
1	1953	9191
1	1939	9192
1	1922	9193
1	1904	9194
1	1894	9195
1	1888	9196
1	1888	9197
1	1890	9198
1	1897	9199
1	1908	9200
1	1912	9201
1	1914	9202
1	1908	9203
1	1913	9204
1	1917	9205
1	1913	9206
1	1912	9207
1	1922	9208
1	1922	9209
1	1930	9210
1	1945	9211
1	1962	9212
1	1977	9213
1	1991	9214
1	1998	9215
1	1999	9216
1	1989	9217
1	1969	9218
1	1950	9219
1	1938	9220
1	1922	9221
1	1914	9222
1	1913	9223
1	1908	9224
1	1904	9225
1	1895	9226
1	1881	9227
1	1877	9228
1	1869	9229
1	1870	9230
1	1874	9231
1	1881	9232
1	1890	9233
1	1896	9234
1	1907	9235
1	1910	9236
1	1919	9237
1	1922	9238
1	1924	9239
1	1923	9240
1	1919	9241
1	1922	9242
1	1922	9243
1	1922	9244
1	1917	9245
1	1912	9246
1	1908	9247
1	1898	9248
1	1899	9249
1	1900	9250
1	1904	9251
1	1916	9252
1	1924	9253
1	1922	9254
1	1920	9255
1	1921	9256
1	1921	9257
1	1919	9258
1	1916	9259
1	1906	9260
1	1897	9261
1	1895	9262
1	1886	9263
1	1886	9264
1	1883	9265
1	1881	9266
1	1881	9267
1	1884	9268
1	1884	9269
1	1891	9270
1	1901	9271
1	1913	9272
1	1922	9273
1	1926	9274
1	1924	9275
1	1920	9276
1	1910	9277
1	1895	9278
1	1885	9279
1	1880	9280
1	1883	9281
1	1886	9282
1	1894	9283
1	1890	9284
1	1881	9285
1	1874	9286
1	1868	9287
1	1859	9288
1	1856	9289
1	1844	9290
1	1849	9291
1	1861	9292
1	1875	9293
1	1886	9294
1	1895	9295
1	1895	9296
1	1898	9297
1	1904	9298
1	1904	9299
1	1904	9300
1	1904	9301
1	1898	9302
1	1890	9303
1	1883	9304
1	1882	9305
1	1881	9306
1	1883	9307
1	1881	9308
1	1883	9309
1	1882	9310
1	1881	9311
1	1888	9312
1	1904	9313
1	1913	9314
1	1922	9315
1	1926	9316
1	1924	9317
1	1917	9318
1	1911	9319
1	1911	9320
1	1911	9321
1	1922	9322
1	1922	9323
1	1927	9324
1	1931	9325
1	1927	9326
1	1926	9327
1	1929	9328
1	1927	9329
1	1922	9330
1	1929	9331
1	1922	9332
1	1920	9333
1	1913	9334
1	1906	9335
1	1903	9336
1	1906	9337
1	1913	9338
1	1921	9339
1	1924	9340
1	1926	9341
1	1927	9342
1	1925	9343
1	1923	9344
1	1925	9345
1	1920	9346
1	1921	9347
1	1914	9348
1	1911	9349
1	1908	9350
1	1908	9351
1	1904	9352
1	1896	9353
1	1895	9354
1	1905	9355
1	1914	9356
1	1922	9357
1	1929	9358
1	1930	9359
1	1934	9360
1	1944	9361
1	1952	9362
1	1950	9363
1	1948	9364
1	1948	9365
1	1944	9366
1	1942	9367
1	1937	9368
1	1944	9369
1	1948	9370
1	1949	9371
1	1945	9372
1	1942	9373
1	1940	9374
1	1947	9375
1	1952	9376
1	1960	9377
1	1961	9378
1	1958	9379
1	1948	9380
1	1937	9381
1	1923	9382
1	1908	9383
1	1895	9384
1	1892	9385
1	1888	9386
1	1891	9387
1	1899	9388
1	1906	9389
1	1900	9390
1	1908	9391
1	1906	9392
1	1908	9393
1	1908	9394
1	1908	9395
1	1910	9396
1	1913	9397
1	1908	9398
1	1908	9399
1	1906	9400
1	1897	9401
1	1885	9402
1	1882	9403
1	1869	9404
1	1860	9405
1	1855	9406
1	1852	9407
1	1848	9408
1	1848	9409
1	1847	9410
1	1847	9411
1	1849	9412
1	1843	9413
1	1841	9414
1	1829	9415
1	1820	9416
1	1817	9417
1	1822	9418
1	1826	9419
1	1727	9440
1	1728	9441
1	1730	9442
1	1719	9443
1	1709	9444
1	1695	9445
1	1683	9446
1	1672	9447
1	1671	9448
1	1667	9449
1	1665	9450
1	1661	9451
1	1656	9452
1	1651	9453
1	1652	9454
1	1654	9455
1	1654	9456
1	1652	9457
1	1640	9458
1	1634	9459
1	1832	9420
1	1839	9421
1	1847	9422
1	1854	9423
1	1856	9424
1	1854	9425
1	1843	9426
1	1830	9427
1	1813	9428
1	1796	9429
1	1789	9430
1	1776	9431
1	1770	9432
1	1764	9433
1	1757	9434
1	1742	9435
1	1729	9436
1	1726	9437
1	1726	9438
1	1726	9439
1	1631	9460
1	1625	9461
1	1616	9462
1	1612	9463
1	1608	9464
1	1607	9465
1	1603	9466
1	1599	9467
1	1598	9468
1	1594	9469
1	1593	9470
1	1595	9471
1	1597	9472
1	1589	9473
1	1581	9474
1	1576	9475
1	1572	9476
1	1572	9477
1	1580	9478
1	1583	9479
1	1595	9480
1	1602	9481
1	1599	9482
1	1589	9483
1	1580	9484
1	1569	9485
1	1561	9486
1	1557	9487
1	1551	9488
1	1550	9489
1	1553	9490
1	1555	9491
1	1559	9492
1	1574	9493
1	1581	9494
1	1592	9495
1	1605	9496
1	1612	9497
1	1616	9498
1	1608	9499
1	1594	9500
1	1581	9501
1	1566	9502
1	1553	9503
1	1544	9504
1	1548	9505
1	1554	9506
1	1555	9507
1	1559	9508
1	1553	9509
1	1543	9510
1	1536	9511
1	1529	9512
1	1527	9513
1	1526	9514
1	1524	9515
1	1520	9516
1	1518	9517
1	1513	9518
1	1516	9519
1	1517	9520
1	1521	9521
1	1521	9522
1	1527	9523
1	1525	9524
1	1515	9525
1	1508	9526
1	1498	9527
1	1494	9528
1	1489	9529
1	1487	9530
1	1487	9531
1	1490	9532
1	1492	9533
1	1495	9534
1	1500	9535
1	1507	9536
1	1516	9537
1	1529	9538
1	1541	9539
1	1553	9540
1	1549	9541
1	1553	9542
1	1549	9543
1	1544	9544
1	1542	9545
1	1535	9546
1	1529	9547
1	1523	9548
1	1523	9549
1	1521	9550
1	1519	9551
1	1519	9552
1	1524	9553
1	1525	9554
1	1529	9555
1	1531	9556
1	1529	9557
1	1526	9558
1	1520	9559
1	1506	9560
1	1494	9561
1	1487	9562
1	1474	9563
1	1464	9564
1	1459	9565
1	1455	9566
1	1455	9567
1	1461	9568
1	1467	9569
1	1479	9570
1	1495	9571
1	1508	9572
1	1521	9573
1	1533	9574
1	1541	9575
1	1543	9576
1	1548	9577
1	1544	9578
1	1543	9579
1	1538	9580
1	1527	9581
1	1514	9582
1	1507	9583
1	1503	9584
1	1494	9585
1	1491	9586
1	1490	9587
1	1488	9588
1	1488	9589
1	1485	9590
1	1490	9591
1	1497	9592
1	1503	9593
1	1512	9594
1	1518	9595
1	1517	9596
1	1516	9597
1	1516	9598
1	1508	9599
1	1503	9600
1	1496	9601
1	1489	9602
1	1479	9603
1	1475	9604
1	1475	9605
1	1475	9606
1	1475	9607
1	1464	9608
1	1456	9609
1	1454	9610
1	1459	9611
1	1464	9612
1	1469	9613
1	1460	9614
1	1455	9615
1	1458	9616
1	1458	9617
1	1456	9618
1	1451	9619
1	1419	9640
1	1412	9641
1	1409	9642
1	1409	9643
1	1409	9644
1	1414	9645
1	1419	9646
1	1428	9647
1	1425	9648
1	1424	9649
1	1424	9650
1	1419	9651
1	1412	9652
1	1408	9653
1	1415	9654
1	1425	9655
1	1437	9656
1	1449	9657
1	1459	9658
1	1461	9659
1	1450	9620
1	1448	9621
1	1450	9622
1	1443	9623
1	1442	9624
1	1441	9625
1	1445	9626
1	1448	9627
1	1449	9628
1	1450	9629
1	1449	9630
1	1450	9631
1	1447	9632
1	1439	9633
1	1435	9634
1	1431	9635
1	1432	9636
1	1435	9637
1	1433	9638
1	1424	9639
1	1454	9660
1	1449	9661
1	1449	9662
1	1449	9663
1	1442	9664
1	1436	9665
1	1434	9666
1	1437	9667
1	1424	9668
1	1416	9669
1	1412	9670
1	1420	9671
1	1433	9672
1	1450	9673
1	1451	9674
1	1454	9675
1	1457	9676
1	1462	9677
1	1469	9678
1	1474	9679
1	1398	9700
1	1396	9701
1	1389	9702
1	1380	9703
1	1373	9704
1	1379	9705
1	1390	9706
1	1398	9707
1	1402	9708
1	1407	9709
1	1414	9710
1	1422	9711
1	1427	9712
1	1424	9713
1	1424	9714
1	1422	9715
1	1417	9716
1	1418	9717
1	1418	9718
1	1413	9719
1	1475	9680
1	1476	9681
1	1474	9682
1	1459	9683
1	1449	9684
1	1440	9685
1	1437	9686
1	1431	9687
1	1430	9688
1	1425	9689
1	1422	9690
1	1417	9691
1	1420	9692
1	1418	9693
1	1419	9694
1	1422	9695
1	1416	9696
1	1410	9697
1	1400	9698
1	1398	9699
1	1405	9720
1	1397	9721
1	1373	9722
1	1359	9723
1	1346	9724
1	1344	9725
1	1345	9726
1	1350	9727
1	1358	9728
1	1374	9729
1	1398	9730
1	1413	9731
1	1423	9732
1	1430	9733
1	1433	9734
1	1424	9735
1	1417	9736
1	1415	9737
1	1411	9738
1	1406	9739
1	1398	9740
1	1384	9741
1	1376	9742
1	1371	9743
1	1372	9744
1	1373	9745
1	1374	9746
1	1377	9747
1	1384	9748
1	1395	9749
1	1396	9750
1	1399	9751
1	1402	9752
1	1412	9753
1	1420	9754
1	1425	9755
1	1424	9756
1	1424	9757
1	1415	9758
1	1413	9759
1	1413	9760
1	1419	9761
1	1422	9762
1	1421	9763
1	1409	9764
1	1399	9765
1	1396	9766
1	1395	9767
1	1394	9768
1	1390	9769
1	1382	9770
1	1377	9771
1	1377	9772
1	1373	9773
1	1373	9774
1	1369	9775
1	1367	9776
1	1368	9777
1	1371	9778
1	1370	9779
1	1372	9780
1	1374	9781
1	1373	9782
1	1373	9783
1	1370	9784
1	1359	9785
1	1345	9786
1	1334	9787
1	1333	9788
1	1346	9789
1	1363	9790
1	1382	9791
1	1409	9792
1	1432	9793
1	1441	9794
1	1445	9795
1	1437	9796
1	1425	9797
1	1409	9798
1	1392	9799
1	1373	9800
1	1372	9801
1	1377	9802
1	1376	9803
1	1382	9804
1	1384	9805
1	1382	9806
1	1384	9807
1	1397	9808
1	1398	9809
1	1397	9810
1	1398	9811
1	1401	9812
1	1408	9813
1	1416	9814
1	1422	9815
1	1426	9816
1	1437	9817
1	1442	9818
1	1450	9819
1	1450	9820
1	1450	9821
1	1443	9822
1	1440	9823
1	1438	9824
1	1443	9825
1	1450	9826
1	1458	9827
1	1460	9828
1	1454	9829
1	1456	9830
1	1458	9831
1	1461	9832
1	1460	9833
1	1449	9834
1	1436	9835
1	1419	9836
1	1407	9837
1	1391	9838
1	1372	9839
1	1367	9840
1	1362	9841
1	1369	9842
1	1372	9843
1	1372	9844
1	1379	9845
1	1394	9846
1	1407	9847
1	1413	9848
1	1418	9849
1	1416	9850
1	1410	9851
1	1401	9852
1	1400	9853
1	1398	9854
1	1397	9855
1	1398	9856
1	1399	9857
1	1402	9858
1	1409	9859
1	1409	9860
1	1402	9861
1	1398	9862
1	1392	9863
1	1384	9864
1	1384	9865
1	1394	9866
1	1394	9867
1	1383	9868
1	1368	9869
1	1347	9870
1	1335	9871
1	1330	9872
1	1332	9873
1	1337	9874
1	1338	9875
1	1336	9876
1	1324	9877
1	1308	9878
1	1293	9879
1	1280	9880
1	1272	9881
1	1271	9882
1	1271	9883
1	1267	9884
1	1263	9885
1	1258	9886
1	1258	9887
1	1264	9888
1	1267	9889
1	1272	9890
1	1282	9891
1	1291	9892
1	1294	9893
1	1307	9894
1	1319	9895
1	1322	9896
1	1324	9897
1	1322	9898
1	1319	9899
1	1315	9900
1	1315	9901
1	1318	9902
1	1319	9903
1	1319	9904
1	1309	9905
1	1293	9906
1	1279	9907
1	1264	9908
1	1258	9909
1	1253	9910
1	1250	9911
1	1251	9912
1	1256	9913
1	1262	9914
1	1270	9915
1	1279	9916
1	1292	9917
1	1299	9918
1	1304	9919
1	1312	9940
1	1305	9941
1	1293	9942
1	1288	9943
1	1284	9944
1	1293	9945
1	1299	9946
1	1317	9947
1	1330	9948
1	1346	9949
1	1366	9950
1	1377	9951
1	1398	9952
1	1405	9953
1	1418	9954
1	1427	9955
1	1435	9956
1	1438	9957
1	1450	9958
1	1463	9959
1	1305	9920
1	1310	9921
1	1317	9922
1	1309	9923
1	1302	9924
1	1293	9925
1	1278	9926
1	1266	9927
1	1265	9928
1	1261	9929
1	1256	9930
1	1269	9931
1	1283	9932
1	1297	9933
1	1306	9934
1	1315	9935
1	1323	9936
1	1327	9937
1	1324	9938
1	1319	9939
1	1479	9960
1	1503	9961
1	1529	9962
1	1552	9963
1	1571	9964
1	1589	9965
1	1607	9966
1	1628	9967
1	1639	9968
1	1656	9969
1	1663	9970
1	1672	9971
1	1678	9972
1	1686	9973
1	1686	9974
1	1686	9975
1	1687	9976
1	1686	9977
1	1674	9978
1	1664	9979
1	1660	9980
1	1647	9981
1	1637	9982
1	1616	9983
1	1594	9984
1	1577	9985
1	1566	9986
1	1555	9987
1	1540	9988
1	1515	9989
1	1481	9990
1	1448	9991
1	1412	9992
1	1368	9993
1	1323	9994
1	1284	9995
1	1243	9996
1	1215	9997
1	1184	9998
1	1168	9999
1	1162	10000
1	1160	10001
1	1162	10002
1	1171	10003
1	1176	10004
1	1188	10005
1	1202	10006
1	1215	10007
1	1225	10008
1	1229	10009
1	1232	10010
1	1233	10011
1	1241	10012
1	1240	10013
1	1240	10014
1	1245	10015
1	1255	10016
1	1267	10017
1	1281	10018
1	1292	10019
1	1301	10020
1	1308	10021
1	1312	10022
1	1309	10023
1	1304	10024
1	1297	10025
1	1293	10026
1	1292	10027
1	1288	10028
1	1287	10029
1	1287	10030
1	1285	10031
1	1288	10032
1	1285	10033
1	1283	10034
1	1280	10035
1	1276	10036
1	1276	10037
1	1271	10038
1	1271	10039
1	1276	10040
1	1289	10041
1	1308	10042
1	1319	10043
1	1329	10044
1	1335	10045
1	1340	10046
1	1341	10047
1	1337	10048
1	1332	10049
1	1329	10050
1	1333	10051
1	1343	10052
1	1345	10053
1	1344	10054
1	1334	10055
1	1319	10056
1	1310	10057
1	1293	10058
1	1284	10059
1	1279	10060
1	1271	10061
1	1270	10062
1	1275	10063
1	1281	10064
1	1296	10065
1	1317	10066
1	1333	10067
1	1347	10068
1	1360	10069
1	1365	10070
1	1371	10071
1	1368	10072
1	1355	10073
1	1346	10074
1	1337	10075
1	1333	10076
1	1332	10077
1	1332	10078
1	1332	10079
1	1335	10080
1	1335	10081
1	1328	10082
1	1317	10083
1	1306	10084
1	1305	10085
1	1301	10086
1	1299	10087
1	1296	10088
1	1293	10089
1	1293	10090
1	1293	10091
1	1296	10092
1	1307	10093
1	1319	10094
1	1331	10095
1	1338	10096
1	1346	10097
1	1346	10098
1	1346	10099
1	1346	10100
1	1344	10101
1	1344	10102
1	1340	10103
1	1340	10104
1	1341	10105
1	1343	10106
1	1345	10107
1	1348	10108
1	1353	10109
1	1356	10110
1	1356	10111
1	1358	10112
1	1359	10113
1	1361	10114
1	1359	10115
1	1355	10116
1	1350	10117
1	1344	10118
1	1346	10119
1	1351	10120
1	1358	10121
1	1362	10122
1	1364	10123
1	1358	10124
1	1347	10125
