#Date:= 2024-10-08T16:13:57.042323
#Sampling Rate(Hz):= 1000
#Labels:= LOD	ECG	TS
1	2066	20
1	2106	21
1	2155	22
1	2207	23
1	2262	24
1	2320	25
1	2319	26
1	2314	27
1	2314	28
1	2305	29
1	2297	30
1	2297	31
1	2296	32
1	2294	33
1	2290	34
1	2287	35
1	2273	36
1	2271	37
1	2266	38
1	2259	39
1	2262	60
1	2248	61
1	2230	62
1	2210	63
1	2188	64
1	2172	65
1	2158	66
1	2157	67
1	2153	68
1	2144	69
1	2148	70
1	2157	71
1	2170	72
1	2181	73
1	2185	74
1	2188	75
1	2183	76
1	2176	77
1	2179	78
1	2182	79
1	2251	40
1	2234	41
1	2206	42
1	2183	43
1	2169	44
1	2158	45
1	2158	46
1	2162	47
1	2171	48
1	2183	49
1	2196	50
1	2207	51
1	2215	52
1	2215	53
1	2217	54
1	2232	55
1	2248	56
1	2262	57
1	2269	58
1	2268	59
1	2183	80
1	2186	81
1	2184	82
1	2178	83
1	2160	84
1	2137	85
1	2114	86
1	2088	87
1	2066	88
1	2052	89
1	2037	90
1	2031	91
1	2030	92
1	2036	93
1	2049	94
1	2070	95
1	2088	96
1	2110	97
1	2131	98
1	2152	99
1	2174	100
1	2186	101
1	2197	102
1	2210	103
1	2222	104
1	2234	105
1	2239	106
1	2255	107
1	2266	108
1	2287	109
1	2309	110
1	2336	111
1	2363	112
1	2386	113
1	2414	114
1	2446	115
1	2488	116
1	2525	117
1	2568	118
1	2621	119
1	2314	140
1	2237	141
1	2158	142
1	2091	143
1	2030	144
1	1976	145
1	1929	146
1	1877	147
1	1836	148
1	1796	149
1	1770	150
1	1751	151
1	1739	152
1	1738	153
1	1750	154
1	1765	155
1	1787	156
1	1812	157
1	1839	158
1	1869	159
1	2668	120
1	2719	121
1	2763	122
1	2809	123
1	2851	124
1	2885	125
1	2918	126
1	2948	127
1	2971	128
1	2975	129
1	2953	130
1	2916	131
1	2871	132
1	2813	133
1	2749	134
1	2685	135
1	2617	136
1	2548	137
1	2481	138
1	2394	139
1	1908	160
1	1940	161
1	1962	162
1	1982	163
1	1999	164
1	2017	165
1	2043	166
1	2064	167
1	2068	168
1	2074	169
1	2080	170
1	2087	171
1	2091	172
1	2088	173
1	2079	174
1	2076	175
1	2066	176
1	2054	177
1	2027	178
1	1998	179
1	1963	180
1	1929	181
1	1899	182
1	1878	183
1	1870	184
1	1868	185
1	1863	186
1	1867	187
1	1871	188
1	1877	189
1	1892	190
1	1910	191
1	1932	192
1	1953	193
1	1974	194
1	1988	195
1	1998	196
1	2005	197
1	2010	198
1	2003	199
1	1989	200
1	1981	201
1	1974	202
1	1971	203
1	1967	204
1	1966	205
1	1963	206
1	1961	207
1	1956	208
1	1956	209
1	1953	210
1	1952	211
1	1949	212
1	1952	213
1	1958	214
1	1963	215
1	1957	216
1	1948	217
1	1946	218
1	1940	219
1	1945	220
1	1946	221
1	1945	222
1	1939	223
1	1931	224
1	1924	225
1	1921	226
1	1908	227
1	1901	228
1	1895	229
1	1888	230
1	1883	231
1	1883	232
1	1885	233
1	1888	234
1	1895	235
1	1899	236
1	1898	237
1	1895	238
1	1893	239
1	1877	240
1	1866	241
1	1856	242
1	1855	243
1	1854	244
1	1855	245
1	1854	246
1	1862	247
1	1877	248
1	1890	249
1	1903	250
1	1901	251
1	1904	252
1	1903	253
1	1906	254
1	1908	255
1	1914	256
1	1922	257
1	1922	258
1	1921	259
1	1907	260
1	1880	261
1	1856	262
1	1834	263
1	1813	264
1	1796	265
1	1786	266
1	1777	267
1	1772	268
1	1773	269
1	1778	270
1	1787	271
1	1788	272
1	1785	273
1	1780	274
1	1783	275
1	1778	276
1	1787	277
1	1790	278
1	1793	279
1	1809	280
1	1809	281
1	1800	282
1	1791	283
1	1785	284
1	1779	285
1	1770	286
1	1762	287
1	1751	288
1	1738	289
1	1728	290
1	1719	291
1	1719	292
1	1722	293
1	1725	294
1	1738	295
1	1751	296
1	1760	297
1	1764	298
1	1764	299
1	1757	300
1	1742	301
1	1724	302
1	1710	303
1	1697	304
1	1686	305
1	1673	306
1	1669	307
1	1669	308
1	1677	309
1	1692	310
1	1707	311
1	1722	312
1	1730	313
1	1734	314
1	1728	315
1	1716	316
1	1707	317
1	1690	318
1	1672	319
1	1651	340
1	1629	341
1	1611	342
1	1607	343
1	1607	344
1	1623	345
1	1632	346
1	1634	347
1	1636	348
1	1645	349
1	1652	350
1	1663	351
1	1678	352
1	1701	353
1	1724	354
1	1746	355
1	1764	356
1	1776	357
1	1779	358
1	1770	359
1	1675	400
1	1651	401
1	1621	402
1	1590	403
1	1557	404
1	1534	405
1	1513	406
1	1503	407
1	1499	408
1	1501	409
1	1503	410
1	1503	411
1	1508	412
1	1517	413
1	1528	414
1	1530	415
1	1521	416
1	1506	417
1	1489	418
1	1464	419
1	1759	340
1	1746	341
1	1724	342
1	1710	343
1	1699	344
1	1694	345
1	1687	346
1	1684	347
1	1679	348
1	1679	349
1	1685	350
1	1686	351
1	1699	352
1	1712	353
1	1719	354
1	1717	355
1	1712	356
1	1700	357
1	1689	358
1	1681	359
1	1641	380
1	1623	381
1	1610	382
1	1602	383
1	1589	384
1	1582	385
1	1571	386
1	1555	387
1	1545	388
1	1539	389
1	1538	390
1	1553	391
1	1575	392
1	1599	393
1	1624	394
1	1647	395
1	1661	396
1	1679	397
1	1689	398
1	1686	399
1	1668	360
1	1658	361
1	1642	362
1	1628	363
1	1612	364
1	1594	365
1	1576	366
1	1566	367
1	1559	368
1	1564	369
1	1585	370
1	1616	371
1	1645	372
1	1665	373
1	1680	374
1	1678	375
1	1674	376
1	1667	377
1	1660	378
1	1651	379
1	1440	440
1	1419	441
1	1401	442
1	1377	443
1	1355	444
1	1328	445
1	1298	446
1	1279	447
1	1266	448
1	1263	449
1	1263	450
1	1269	451
1	1274	452
1	1275	453
1	1276	454
1	1267	455
1	1269	456
1	1279	457
1	1293	458
1	1309	459
1	1323	440
1	1335	441
1	1346	442
1	1350	443
1	1351	444
1	1355	445
1	1363	446
1	1363	447
1	1358	448
1	1348	449
1	1343	450
1	1337	451
1	1328	452
1	1319	453
1	1317	454
1	1311	455
1	1304	456
1	1307	457
1	1309	458
1	1312	459
1	1316	460
1	1319	461
1	1311	462
1	1299	463
1	1286	464
1	1273	465
1	1267	466
1	1267	467
1	1265	468
1	1262	469
1	1255	470
1	1241	471
1	1232	472
1	1230	473
1	1233	474
1	1241	475
1	1251	476
1	1267	477
1	1278	478
1	1285	479
1	1295	500
1	1284	501
1	1272	502
1	1252	503
1	1224	504
1	1201	505
1	1175	506
1	1158	507
1	1152	508
1	1160	509
1	1168	510
1	1173	511
1	1178	512
1	1188	513
1	1203	514
1	1219	515
1	1230	516
1	1242	517
1	1251	518
1	1257	519
1	1283	480
1	1278	481
1	1274	482
1	1267	483
1	1265	484
1	1253	485
1	1238	486
1	1229	487
1	1227	488
1	1232	489
1	1242	490
1	1251	491
1	1260	492
1	1269	493
1	1282	494
1	1294	495
1	1307	496
1	1315	497
1	1319	498
1	1314	499
1	1267	520
1	1269	521
1	1268	522
1	1267	523
1	1259	524
1	1242	525
1	1225	526
1	1200	527
1	1188	528
1	1183	529
1	1186	530
1	1198	531
1	1219	532
1	1245	533
1	1268	534
1	1290	535
1	1306	536
1	1318	537
1	1320	538
1	1332	539
1	1335	540
1	1334	541
1	1328	542
1	1314	543
1	1292	544
1	1267	545
1	1233	546
1	1199	547
1	1166	548
1	1144	549
1	1134	550
1	1119	551
1	1110	552
1	1106	553
1	1110	554
1	1121	555
1	1136	556
1	1161	557
1	1188	558
1	1213	559
1	1237	560
1	1242	561
1	1243	562
1	1242	563
1	1237	564
1	1229	565
1	1215	566
1	1206	567
1	1201	568
1	1194	569
1	1193	570
1	1196	571
1	1198	572
1	1202	573
1	1211	574
1	1229	575
1	1242	576
1	1258	577
1	1273	578
1	1288	579
1	1297	580
1	1296	581
1	1292	582
1	1281	583
1	1273	584
1	1266	585
1	1255	586
1	1241	587
1	1227	588
1	1211	589
1	1201	590
1	1193	591
1	1201	592
1	1215	593
1	1224	594
1	1238	595
1	1247	596
1	1256	597
1	1265	598
1	1267	599
1	1271	600
1	1273	601
1	1273	602
1	1268	603
1	1261	604
1	1247	605
1	1240	606
1	1237	607
1	1239	608
1	1243	609
1	1251	610
1	1253	611
1	1258	612
1	1265	613
1	1268	614
1	1273	615
1	1278	616
1	1279	617
1	1278	618
1	1273	619
1	1266	620
1	1255	621
1	1248	622
1	1240	623
1	1224	624
1	1213	625
1	1211	626
1	1197	627
1	1189	628
1	1189	629
1	1188	630
1	1183	631
1	1176	632
1	1179	633
1	1184	634
1	1189	635
1	1212	636
1	1229	637
1	1245	638
1	1251	639
1	1255	640
1	1251	641
1	1242	642
1	1230	643
1	1219	644
1	1202	645
1	1188	646
1	1186	647
1	1184	648
1	1176	649
1	1171	650
1	1167	651
1	1170	652
1	1172	653
1	1176	654
1	1181	655
1	1180	656
1	1175	657
1	1174	658
1	1167	659
1	1162	660
1	1160	661
1	1158	662
1	1160	663
1	1163	664
1	1173	665
1	1178	666
1	1185	667
1	1193	668
1	1205	669
1	1224	670
1	1238	671
1	1251	672
1	1255	673
1	1257	674
1	1267	675
1	1271	676
1	1279	677
1	1279	678
1	1273	679
1	1263	680
1	1244	681
1	1228	682
1	1214	683
1	1198	684
1	1188	685
1	1176	686
1	1168	687
1	1165	688
1	1165	689
1	1175	690
1	1190	691
1	1211	692
1	1228	693
1	1248	694
1	1267	695
1	1283	696
1	1297	697
1	1312	698
1	1319	699
1	1328	700
1	1327	701
1	1319	702
1	1306	703
1	1293	704
1	1276	705
1	1255	706
1	1241	707
1	1229	708
1	1215	709
1	1209	710
1	1194	711
1	1188	712
1	1188	713
1	1188	714
1	1199	715
1	1215	716
1	1230	717
1	1246	718
1	1255	719
1	1257	720
1	1260	721
1	1261	722
1	1256	723
1	1239	724
1	1225	725
1	1213	726
1	1197	727
1	1176	728
1	1158	729
1	1142	730
1	1135	731
1	1134	732
1	1139	733
1	1162	734
1	1176	735
1	1188	736
1	1199	737
1	1206	738
1	1211	739
1	1210	740
1	1199	741
1	1189	742
1	1188	743
1	1188	744
1	1193	745
1	1209	746
1	1216	747
1	1226	748
1	1235	749
1	1242	750
1	1256	751
1	1267	752
1	1273	753
1	1278	754
1	1280	755
1	1271	756
1	1267	757
1	1265	758
1	1255	759
1	1255	760
1	1252	761
1	1248	762
1	1250	763
1	1251	764
1	1251	765
1	1253	766
1	1256	767
1	1263	768
1	1267	769
1	1271	770
1	1274	771
1	1281	772
1	1291	773
1	1293	774
1	1296	775
1	1305	776
1	1312	777
1	1317	778
1	1308	779
1	1287	780
1	1267	781
1	1242	782
1	1215	783
1	1187	784
1	1162	785
1	1150	786
1	1142	787
1	1147	788
1	1163	789
1	1187	790
1	1212	791
1	1241	792
1	1273	793
1	1299	794
1	1322	795
1	1338	796
1	1346	797
1	1352	798
1	1354	799
1	1350	800
1	1346	801
1	1345	802
1	1332	803
1	1320	804
1	1312	805
1	1303	806
1	1286	807
1	1268	808
1	1260	809
1	1256	810
1	1267	811
1	1286	812
1	1309	813
1	1338	814
1	1373	815
1	1407	816
1	1432	817
1	1450	818
1	1456	819
1	1461	820
1	1449	821
1	1435	822
1	1415	823
1	1390	824
1	1364	825
1	1346	826
1	1331	827
1	1320	828
1	1310	829
1	1303	830
1	1293	831
1	1285	832
1	1283	833
1	1287	834
1	1296	835
1	1310	836
1	1324	837
1	1346	838
1	1377	839
1	1409	840
1	1436	841
1	1458	842
1	1481	843
1	1497	844
1	1504	845
1	1503	846
1	1498	847
1	1487	848
1	1471	849
1	1458	850
1	1450	851
1	1454	852
1	1472	853
1	1490	854
1	1517	855
1	1545	856
1	1575	857
1	1602	858
1	1621	859
1	1632	860
1	1624	861
1	1607	862
1	1581	863
1	1555	864
1	1533	865
1	1508	866
1	1490	867
1	1477	868
1	1476	869
1	1476	870
1	1476	871
1	1481	872
1	1490	873
1	1492	874
1	1494	875
1	1487	876
1	1489	877
1	1485	878
1	1475	879
1	1463	880
1	1441	881
1	1418	882
1	1395	883
1	1376	884
1	1359	885
1	1337	886
1	1328	887
1	1333	888
1	1338	889
1	1350	890
1	1372	891
1	1412	892
1	1458	893
1	1501	894
1	1547	895
1	1581	896
1	1607	897
1	1626	898
1	1636	899
1	1643	900
1	1643	901
1	1634	902
1	1624	903
1	1604	904
1	1581	905
1	1546	906
1	1521	907
1	1494	908
1	1477	909
1	1471	910
1	1466	911
1	1470	912
1	1482	913
1	1497	914
1	1504	915
1	1512	916
1	1518	917
1	1523	918
1	1524	919
1	1525	920
1	1516	921
1	1510	922
1	1507	923
1	1510	924
1	1511	925
1	1508	926
1	1507	927
1	1511	928
1	1518	929
1	1517	930
1	1510	931
1	1497	932
1	1494	933
1	1494	934
1	1495	935
1	1490	936
1	1487	937
1	1487	938
1	1487	939
1	1489	940
1	1487	941
1	1476	942
1	1464	943
1	1452	944
1	1454	945
1	1465	946
1	1486	947
1	1513	948
1	1542	949
1	1571	950
1	1594	951
1	1620	952
1	1651	953
1	1687	954
1	1741	955
1	1791	956
1	1848	957
1	1913	958
1	1976	959
1	2040	960
1	2105	961
1	2170	962
1	2245	963
1	2314	964
1	2369	965
1	2408	966
1	2440	967
1	2467	968
1	2485	969
1	2494	970
1	2485	971
1	2458	972
1	2419	973
1	2371	974
1	2318	975
1	2261	976
1	2192	977
1	2127	978
1	2052	979
1	1962	980
1	1886	981
1	1791	982
1	1694	983
1	1595	984
1	1505	985
1	1419	986
1	1332	987
1	1267	988
1	1215	989
1	1194	990
1	1198	991
1	1219	992
1	1251	993
1	1296	994
1	1338	995
1	1382	996
1	1423	997
1	1453	998
1	1478	999
1	1503	1000
1	1517	1001
1	1526	1002
1	1529	1003
1	1531	1004
1	1536	1005
1	1543	1006
1	1553	1007
1	1563	1008
1	1571	1009
1	1573	1010
1	1578	1011
1	1582	1012
1	1589	1013
1	1596	1014
1	1614	1015
1	1628	1016
1	1634	1017
1	1634	1018
1	1634	1019
1	1625	1020
1	1607	1021
1	1585	1022
1	1580	1023
1	1574	1024
1	1557	1025
1	1551	1026
1	1542	1027
1	1536	1028
1	1538	1029
1	1553	1030
1	1573	1031
1	1600	1032
1	1626	1033
1	1659	1034
1	1683	1035
1	1705	1036
1	1724	1037
1	1737	1038
1	1734	1039
1	1712	1040
1	1697	1041
1	1672	1042
1	1647	1043
1	1621	1044
1	1602	1045
1	1593	1046
1	1589	1047
1	1592	1048
1	1595	1049
1	1605	1050
1	1615	1051
1	1633	1052
1	1651	1053
1	1670	1054
1	1680	1055
1	1686	1056
1	1689	1057
1	1688	1058
1	1682	1059
1	1710	1080
1	1708	1081
1	1705	1082
1	1692	1083
1	1683	1084
1	1671	1085
1	1665	1086
1	1659	1087
1	1654	1088
1	1646	1089
1	1647	1090
1	1647	1091
1	1654	1092
1	1661	1093
1	1664	1094
1	1664	1095
1	1660	1096
1	1655	1097
1	1647	1098
1	1645	1099
1	1680	1060
1	1669	1061
1	1656	1062
1	1646	1063
1	1636	1064
1	1629	1065
1	1620	1066
1	1616	1067
1	1612	1068
1	1612	1069
1	1611	1070
1	1613	1071
1	1625	1072
1	1635	1073
1	1649	1074
1	1672	1075
1	1686	1076
1	1696	1077
1	1705	1078
1	1711	1079
1	1636	1100
1	1634	1101
1	1634	1102
1	1634	1103
1	1634	1104
1	1635	1105
1	1631	1106
1	1623	1107
1	1623	1108
1	1628	1109
1	1634	1110
1	1635	1111
1	1643	1112
1	1647	1113
1	1657	1114
1	1661	1115
1	1674	1116
1	1689	1117
1	1703	1118
1	1712	1119
1	1725	1120
1	1727	1121
1	1721	1122
1	1711	1123
1	1699	1124
1	1684	1125
1	1663	1126
1	1651	1127
1	1656	1128
1	1662	1129
1	1673	1130
1	1686	1131
1	1711	1132
1	1733	1133
1	1746	1134
1	1757	1135
1	1764	1136
1	1764	1137
1	1762	1138
1	1757	1139
1	1762	1140
1	1754	1141
1	1742	1142
1	1734	1143
1	1727	1144
1	1711	1145
1	1703	1146
1	1699	1147
1	1689	1148
1	1686	1149
1	1687	1150
1	1686	1151
1	1688	1152
1	1694	1153
1	1705	1154
1	1720	1155
1	1742	1156
1	1761	1157
1	1767	1158
1	1772	1159
1	1776	1160
1	1775	1161
1	1764	1162
1	1751	1163
1	1741	1164
1	1741	1165
1	1738	1166
1	1733	1167
1	1731	1168
1	1733	1169
1	1739	1170
1	1751	1171
1	1767	1172
1	1788	1173
1	1803	1174
1	1817	1175
1	1828	1176
1	1841	1177
1	1844	1178
1	1847	1179
1	1859	1180
1	1868	1181
1	1870	1182
1	1872	1183
1	1872	1184
1	1870	1185
1	1868	1186
1	1856	1187
1	1841	1188
1	1819	1189
1	1791	1190
1	1772	1191
1	1764	1192
1	1762	1193
1	1756	1194
1	1757	1195
1	1762	1196
1	1767	1197
1	1777	1198
1	1779	1199
1	1773	1200
1	1761	1201
1	1749	1202
1	1737	1203
1	1728	1204
1	1723	1205
1	1723	1206
1	1729	1207
1	1744	1208
1	1757	1209
1	1774	1210
1	1787	1211
1	1796	1212
1	1814	1213
1	1821	1214
1	1832	1215
1	1839	1216
1	1843	1217
1	1839	1218
1	1830	1219
1	1817	1220
1	1808	1221
1	1791	1222
1	1777	1223
1	1764	1224
1	1764	1225
1	1764	1226
1	1763	1227
1	1760	1228
1	1770	1229
1	1773	1230
1	1778	1231
1	1785	1232
1	1798	1233
1	1818	1234
1	1831	1235
1	1828	1236
1	1824	1237
1	1817	1238
1	1796	1239
1	1773	1240
1	1741	1241
1	1710	1242
1	1688	1243
1	1675	1244
1	1670	1245
1	1656	1246
1	1641	1247
1	1634	1248
1	1631	1249
1	1633	1250
1	1639	1251
1	1651	1252
1	1667	1253
1	1686	1254
1	1703	1255
1	1710	1256
1	1713	1257
1	1718	1258
1	1713	1259
1	1698	1260
1	1684	1261
1	1667	1262
1	1649	1263
1	1631	1264
1	1607	1265
1	1594	1266
1	1589	1267
1	1589	1268
1	1593	1269
1	1607	1270
1	1616	1271
1	1630	1272
1	1648	1273
1	1673	1274
1	1697	1275
1	1712	1276
1	1717	1277
1	1711	1278
1	1695	1279
1	1665	1280
1	1647	1281
1	1621	1282
1	1595	1283
1	1573	1284
1	1551	1285
1	1529	1286
1	1513	1287
1	1503	1288
1	1503	1289
1	1503	1290
1	1503	1291
1	1515	1292
1	1532	1293
1	1555	1294
1	1571	1295
1	1590	1296
1	1605	1297
1	1611	1298
1	1612	1299
1	1620	1300
1	1616	1301
1	1606	1302
1	1589	1303
1	1572	1304
1	1555	1305
1	1542	1306
1	1536	1307
1	1535	1308
1	1539	1309
1	1537	1310
1	1539	1311
1	1546	1312
1	1549	1313
1	1544	1314
1	1543	1315
1	1532	1316
1	1525	1317
1	1516	1318
1	1517	1319
1	1526	1320
1	1530	1321
1	1536	1322
1	1538	1323
1	1533	1324
1	1525	1325
1	1525	1326
1	1526	1327
1	1526	1328
1	1521	1329
1	1524	1330
1	1530	1331
1	1529	1332
1	1533	1333
1	1536	1334
1	1530	1335
1	1528	1336
1	1528	1337
1	1528	1338
1	1525	1339
1	1511	1340
1	1503	1341
1	1491	1342
1	1481	1343
1	1474	1344
1	1469	1345
1	1478	1346
1	1490	1347
1	1503	1348
1	1517	1349
1	1526	1350
1	1535	1351
1	1548	1352
1	1561	1353
1	1577	1354
1	1591	1355
1	1605	1356
1	1619	1357
1	1634	1358
1	1644	1359
1	1657	1360
1	1649	1361
1	1633	1362
1	1607	1363
1	1581	1364
1	1555	1365
1	1539	1366
1	1529	1367
1	1525	1368
1	1517	1369
1	1518	1370
1	1525	1371
1	1531	1372
1	1538	1373
1	1542	1374
1	1557	1375
1	1576	1376
1	1602	1377
1	1626	1378
1	1651	1379
1	1634	1400
1	1620	1401
1	1607	1402
1	1592	1403
1	1581	1404
1	1580	1405
1	1569	1406
1	1565	1407
1	1571	1408
1	1575	1409
1	1581	1410
1	1584	1411
1	1582	1412
1	1584	1413
1	1595	1414
1	1608	1415
1	1628	1416
1	1647	1417
1	1657	1418
1	1660	1419
1	1667	1380
1	1672	1381
1	1660	1382
1	1639	1383
1	1610	1384
1	1579	1385
1	1551	1386
1	1534	1387
1	1530	1388
1	1533	1389
1	1551	1390
1	1566	1391
1	1587	1392
1	1611	1393
1	1630	1394
1	1643	1395
1	1647	1396
1	1652	1397
1	1652	1398
1	1647	1399
1	1664	1420
1	1661	1421
1	1660	1422
1	1658	1423
1	1652	1424
1	1646	1425
1	1634	1426
1	1618	1427
1	1607	1428
1	1602	1429
1	1604	1430
1	1612	1431
1	1623	1432
1	1632	1433
1	1638	1434
1	1642	1435
1	1634	1436
1	1631	1437
1	1623	1438
1	1623	1439
1	1634	1440
1	1643	1441
1	1643	1442
1	1638	1443
1	1634	1444
1	1625	1445
1	1620	1446
1	1621	1447
1	1619	1448
1	1620	1449
1	1629	1450
1	1634	1451
1	1638	1452
1	1646	1453
1	1647	1454
1	1659	1455
1	1668	1456
1	1678	1457
1	1687	1458
1	1686	1459
1	1664	1460
1	1650	1461
1	1632	1462
1	1605	1463
1	1580	1464
1	1564	1465
1	1544	1466
1	1530	1467
1	1523	1468
1	1517	1469
1	1524	1470
1	1542	1471
1	1582	1472
1	1629	1473
1	1673	1474
1	1706	1475
1	1725	1476
1	1737	1477
1	1742	1478
1	1738	1479
1	1736	1480
1	1719	1481
1	1702	1482
1	1686	1483
1	1678	1484
1	1670	1485
1	1661	1486
1	1651	1487
1	1638	1488
1	1632	1489
1	1621	1490
1	1617	1491
1	1615	1492
1	1620	1493
1	1626	1494
1	1646	1495
1	1660	1496
1	1674	1497
1	1674	1498
1	1680	1499
1	1676	1500
1	1663	1501
1	1647	1502
1	1633	1503
1	1616	1504
1	1594	1505
1	1584	1506
1	1583	1507
1	1590	1508
1	1593	1509
1	1602	1510
1	1604	1511
1	1608	1512
1	1628	1513
1	1647	1514
1	1661	1515
1	1677	1516
1	1688	1517
1	1697	1518
1	1697	1519
1	1686	1520
1	1684	1521
1	1679	1522
1	1672	1523
1	1666	1524
1	1664	1525
1	1657	1526
1	1641	1527
1	1631	1528
1	1622	1529
1	1608	1530
1	1607	1531
1	1607	1532
1	1606	1533
1	1598	1534
1	1590	1535
1	1585	1536
1	1592	1537
1	1593	1538
1	1602	1539
1	1610	1540
1	1612	1541
1	1621	1542
1	1631	1543
1	1633	1544
1	1643	1545
1	1646	1546
1	1639	1547
1	1633	1548
1	1622	1549
1	1602	1550
1	1591	1551
1	1581	1552
1	1581	1553
1	1584	1554
1	1597	1555
1	1607	1556
1	1621	1557
1	1634	1558
1	1647	1559
1	1657	1560
1	1664	1561
1	1672	1562
1	1674	1563
1	1675	1564
1	1665	1565
1	1661	1566
1	1657	1567
1	1648	1568
1	1642	1569
1	1646	1570
1	1647	1571
1	1652	1572
1	1660	1573
1	1664	1574
1	1669	1575
1	1677	1576
1	1677	1577
1	1675	1578
1	1679	1579
1	1699	1600
1	1699	1601
1	1699	1602
1	1700	1603
1	1697	1604
1	1687	1605
1	1670	1606
1	1643	1607
1	1617	1608
1	1602	1609
1	1593	1610
1	1602	1611
1	1617	1612
1	1632	1613
1	1646	1614
1	1662	1615
1	1679	1616
1	1698	1617
1	1712	1618
1	1707	1619
1	1675	1580
1	1673	1581
1	1661	1582
1	1651	1583
1	1635	1584
1	1631	1585
1	1620	1586
1	1609	1587
1	1602	1588
1	1594	1589
1	1598	1590
1	1607	1591
1	1616	1592
1	1634	1593
1	1654	1594
1	1667	1595
1	1680	1596
1	1690	1597
1	1688	1598
1	1691	1599
1	1697	1620
1	1686	1621
1	1678	1622
1	1664	1623
1	1652	1624
1	1631	1625
1	1620	1626
1	1613	1627
1	1615	1628
1	1625	1629
1	1635	1630
1	1656	1631
1	1672	1632
1	1686	1633
1	1703	1634
1	1712	1635
1	1712	1636
1	1710	1637
1	1709	1638
1	1707	1639
1	1699	1640
1	1692	1641
1	1685	1642
1	1674	1643
1	1659	1644
1	1639	1645
1	1616	1646
1	1599	1647
1	1586	1648
1	1584	1649
1	1592	1650
1	1598	1651
1	1604	1652
1	1607	1653
1	1615	1654
1	1625	1655
1	1632	1656
1	1639	1657
1	1652	1658
1	1664	1659
1	1679	1660
1	1687	1661
1	1696	1662
1	1700	1663
1	1697	1664
1	1688	1665
1	1683	1666
1	1674	1667
1	1674	1668
1	1676	1669
1	1680	1670
1	1686	1671
1	1692	1672
1	1700	1673
1	1711	1674
1	1717	1675
1	1710	1676
1	1692	1677
1	1681	1678
1	1674	1679
1	1670	1680
1	1661	1681
1	1651	1682
1	1646	1683
1	1644	1684
1	1634	1685
1	1634	1686
1	1641	1687
1	1651	1688
1	1660	1689
1	1670	1690
1	1682	1691
1	1695	1692
1	1711	1693
1	1724	1694
1	1738	1695
1	1751	1696
1	1763	1697
1	1775	1698
1	1790	1699
1	1798	1700
1	1803	1701
1	1803	1702
1	1793	1703
1	1779	1704
1	1764	1705
1	1733	1706
1	1703	1707
1	1680	1708
1	1665	1709
1	1660	1710
1	1657	1711
1	1654	1712
1	1651	1713
1	1657	1714
1	1662	1715
1	1675	1716
1	1688	1717
1	1699	1718
1	1711	1719
1	1731	1720
1	1743	1721
1	1751	1722
1	1761	1723
1	1766	1724
1	1776	1725
1	1778	1726
1	1773	1727
1	1773	1728
1	1777	1729
1	1778	1730
1	1775	1731
1	1770	1732
1	1765	1733
1	1765	1734
1	1770	1735
1	1772	1736
1	1777	1737
1	1783	1738
1	1791	1739
1	1808	1740
1	1811	1741
1	1809	1742
1	1792	1743
1	1777	1744
1	1747	1745
1	1734	1746
1	1718	1747
1	1703	1748
1	1689	1749
1	1676	1750
1	1655	1751
1	1634	1752
1	1619	1753
1	1607	1754
1	1602	1755
1	1602	1756
1	1607	1757
1	1608	1758
1	1610	1759
1	1604	1760
1	1604	1761
1	1606	1762
1	1609	1763
1	1616	1764
1	1629	1765
1	1635	1766
1	1654	1767
1	1682	1768
1	1705	1769
1	1729	1770
1	1757	1771
1	1782	1772
1	1793	1773
1	1798	1774
1	1794	1775
1	1795	1776
1	1796	1777
1	1801	1778
1	1800	1779
1	1645	1800
1	1647	1801
1	1652	1802
1	1647	1803
1	1638	1804
1	1623	1805
1	1607	1806
1	1599	1807
1	1600	1808
1	1607	1809
1	1624	1810
1	1637	1811
1	1652	1812
1	1662	1813
1	1676	1814
1	1697	1815
1	1728	1816
1	1762	1817
1	1791	1818
1	1832	1819
1	1796	1780
1	1785	1781
1	1766	1782
1	1743	1783
1	1724	1784
1	1700	1785
1	1686	1786
1	1671	1787
1	1660	1788
1	1647	1789
1	1622	1790
1	1607	1791
1	1598	1792
1	1593	1793
1	1585	1794
1	1597	1795
1	1608	1796
1	1625	1797
1	1634	1798
1	1639	1799
1	1870	1820
1	1905	1821
1	1942	1822
1	1974	1823
1	2003	1824
1	2039	1825
1	2065	1826
1	2088	1827
1	2119	1828
1	2167	1829
1	2206	1830
1	2255	1831
1	2304	1832
1	2359	1833
1	2411	1834
1	2451	1835
1	2491	1836
1	2516	1837
1	2535	1838
1	2548	1839
1	1408	1880
1	1398	1881
1	1395	1882
1	1390	1883
1	1384	1884
1	1379	1885
1	1384	1886
1	1401	1887
1	1423	1888
1	1446	1889
1	1476	1890
1	1499	1891
1	1526	1892
1	1546	1893
1	1571	1894
1	1603	1895
1	1633	1896
1	1660	1897
1	1682	1898
1	1698	1899
1	1656	1900
1	1664	1901
1	1677	1902
1	1686	1903
1	1692	1904
1	1695	1905
1	1690	1906
1	1678	1907
1	1665	1908
1	1662	1909
1	1656	1910
1	1652	1911
1	1660	1912
1	1670	1913
1	1683	1914
1	1700	1915
1	1708	1916
1	1712	1917
1	1716	1918
1	1723	1919
1	1712	1900
1	1728	1901
1	1743	1902
1	1755	1903
1	1759	1904
1	1755	1905
1	1738	1906
1	1710	1907
1	1680	1908
1	1651	1909
1	1633	1910
1	1620	1911
1	1607	1912
1	1597	1913
1	1595	1914
1	1596	1915
1	1603	1916
1	1613	1917
1	1631	1918
1	1642	1919
1	2545	1840
1	2519	1841
1	2485	1842
1	2425	1843
1	2354	1844
1	2288	1845
1	2218	1846
1	2148	1847
1	2077	1848
1	2002	1849
1	1908	1850
1	1856	1851
1	1795	1852
1	1737	1853
1	1674	1854
1	1611	1855
1	1555	1856
1	1504	1857
1	1468	1858
1	1437	1859
1	1720	1920
1	1712	1921
1	1704	1922
1	1701	1923
1	1699	1924
1	1686	1925
1	1677	1926
1	1675	1927
1	1685	1928
1	1703	1929
1	1723	1930
1	1740	1931
1	1752	1932
1	1769	1933
1	1790	1934
1	1796	1935
1	1791	1936
1	1777	1937
1	1764	1938
1	1750	1939
1	1724	1940
1	1710	1941
1	1688	1942
1	1669	1943
1	1647	1944
1	1625	1945
1	1616	1946
1	1610	1947
1	1616	1948
1	1625	1949
1	1643	1950
1	1660	1951
1	1675	1952
1	1686	1953
1	1698	1954
1	1708	1955
1	1715	1956
1	1728	1957
1	1738	1958
1	1752	1959
1	1724	1980
1	1721	1981
1	1717	1982
1	1712	1983
1	1710	1984
1	1704	1985
1	1703	1986
1	1705	1987
1	1705	1988
1	1707	1989
1	1712	1990
1	1711	1991
1	1716	1992
1	1727	1993
1	1738	1994
1	1751	1995
1	1764	1996
1	1773	1997
1	1773	1998
1	1769	1999
1	1770	1960
1	1780	1961
1	1785	1962
1	1783	1963
1	1770	1964
1	1756	1965
1	1746	1966
1	1737	1967
1	1728	1968
1	1724	1969
1	1718	1970
1	1715	1971
1	1721	1972
1	1724	1973
1	1728	1974
1	1738	1975
1	1737	1976
1	1731	1977
1	1728	1978
1	1728	1979
1	1757	2000
1	1744	2001
1	1728	2002
1	1716	2003
1	1712	2004
1	1718	2005
1	1714	2006
1	1711	2007
1	1712	2008
1	1719	2009
1	1734	2010
1	1746	2011
1	1757	2012
1	1769	2013
1	1783	2014
1	1796	2015
1	1817	2016
1	1836	2017
1	1847	2018
1	1845	2019
1	1854	2020
1	1846	2021
1	1836	2022
1	1817	2023
1	1803	2024
1	1796	2025
1	1791	2026
1	1783	2027
1	1786	2028
1	1791	2029
1	1791	2030
1	1792	2031
1	1791	2032
1	1791	2033
1	1787	2034
1	1786	2035
1	1780	2036
1	1770	2037
1	1769	2038
1	1768	2039
1	1773	2040
1	1765	2041
1	1761	2042
1	1751	2043
1	1742	2044
1	1729	2045
1	1726	2046
1	1725	2047
1	1727	2048
1	1733	2049
1	1751	2050
1	1767	2051
1	1791	2052
1	1815	2053
1	1822	2054
1	1830	2055
1	1841	2056
1	1845	2057
1	1856	2058
1	1860	2059
1	1858	2060
1	1857	2061
1	1854	2062
1	1847	2063
1	1845	2064
1	1859	2065
1	1867	2066
1	1869	2067
1	1868	2068
1	1860	2069
1	1854	2070
1	1847	2071
1	1847	2072
1	1858	2073
1	1877	2074
1	1895	2075
1	1911	2076
1	1922	2077
1	1922	2078
1	1921	2079
1	1855	2100
1	1843	2101
1	1826	2102
1	1808	2103
1	1787	2104
1	1755	2105
1	1739	2106
1	1731	2107
1	1726	2108
1	1733	2109
1	1749	2110
1	1761	2111
1	1775	2112
1	1791	2113
1	1803	2114
1	1815	2115
1	1803	2116
1	1790	2117
1	1775	2118
1	1762	2119
1	1922	2080
1	1913	2081
1	1912	2082
1	1908	2083
1	1904	2084
1	1895	2085
1	1881	2086
1	1869	2087
1	1852	2088
1	1842	2089
1	1830	2090
1	1828	2091
1	1834	2092
1	1842	2093
1	1850	2094
1	1867	2095
1	1870	2096
1	1868	2097
1	1865	2098
1	1861	2099
1	1737	2120
1	1724	2121
1	1713	2122
1	1698	2123
1	1686	2124
1	1670	2125
1	1661	2126
1	1639	2127
1	1634	2128
1	1637	2129
1	1639	2130
1	1652	2131
1	1663	2132
1	1685	2133
1	1703	2134
1	1717	2135
1	1735	2136
1	1743	2137
1	1749	2138
1	1742	2139
1	1724	2140
1	1699	2141
1	1668	2142
1	1642	2143
1	1618	2144
1	1593	2145
1	1581	2146
1	1580	2147
1	1591	2148
1	1607	2149
1	1634	2150
1	1652	2151
1	1673	2152
1	1687	2153
1	1695	2154
1	1693	2155
1	1690	2156
1	1670	2157
1	1654	2158
1	1650	2159
1	1646	2160
1	1644	2161
1	1646	2162
1	1643	2163
1	1645	2164
1	1649	2165
1	1658	2166
1	1665	2167
1	1669	2168
1	1672	2169
1	1678	2170
1	1677	2171
1	1675	2172
1	1675	2173
1	1677	2174
1	1677	2175
1	1681	2176
1	1685	2177
1	1686	2178
1	1686	2179
1	1675	2200
1	1672	2201
1	1665	2202
1	1655	2203
1	1639	2204
1	1634	2205
1	1629	2206
1	1620	2207
1	1607	2208
1	1602	2209
1	1594	2210
1	1594	2211
1	1594	2212
1	1594	2213
1	1598	2214
1	1604	2215
1	1618	2216
1	1634	2217
1	1647	2218
1	1652	2219
1	1649	2200
1	1639	2201
1	1633	2202
1	1622	2203
1	1611	2204
1	1600	2205
1	1592	2206
1	1583	2207
1	1581	2208
1	1572	2209
1	1556	2210
1	1555	2211
1	1561	2212
1	1580	2213
1	1607	2214
1	1647	2215
1	1673	2216
1	1687	2217
1	1697	2218
1	1701	2219
1	1710	2220
1	1711	2221
1	1707	2222
1	1697	2223
1	1685	2224
1	1669	2225
1	1663	2226
1	1660	2227
1	1647	2228
1	1633	2229
1	1616	2230
1	1602	2231
1	1591	2232
1	1581	2233
1	1586	2234
1	1593	2235
1	1607	2236
1	1623	2237
1	1649	2238
1	1674	2239
1	1693	2240
1	1703	2241
1	1712	2242
1	1712	2243
1	1709	2244
1	1697	2245
1	1690	2246
1	1686	2247
1	1686	2248
1	1686	2249
1	1692	2250
1	1701	2251
1	1714	2252
1	1727	2253
1	1733	2254
1	1712	2255
1	1692	2256
1	1661	2257
1	1634	2258
1	1609	2259
1	1593	2260
1	1581	2261
1	1567	2262
1	1561	2263
1	1560	2264
1	1569	2265
1	1587	2266
1	1610	2267
1	1634	2268
1	1660	2269
1	1687	2270
1	1711	2271
1	1730	2272
1	1741	2273
1	1749	2274
1	1751	2275
1	1756	2276
1	1751	2277
1	1739	2278
1	1725	2279
1	1712	2280
1	1708	2281
1	1706	2282
1	1704	2283
1	1703	2284
1	1703	2285
1	1701	2286
1	1706	2287
1	1712	2288
1	1718	2289
1	1737	2290
1	1742	2291
1	1751	2292
1	1756	2293
1	1756	2294
1	1756	2295
1	1751	2296
1	1741	2297
1	1729	2298
1	1720	2299
1	1711	2300
1	1707	2301
1	1701	2302
1	1698	2303
1	1697	2304
1	1692	2305
1	1676	2306
1	1661	2307
1	1651	2308
1	1646	2309
1	1636	2310
1	1633	2311
1	1625	2312
1	1625	2313
1	1638	2314
1	1648	2315
1	1656	2316
1	1661	2317
1	1674	2318
1	1686	2319
1	1702	2340
1	1692	2341
1	1685	2342
1	1680	2343
1	1677	2344
1	1674	2345
1	1680	2346
1	1696	2347
1	1712	2348
1	1726	2349
1	1738	2350
1	1753	2351
1	1757	2352
1	1759	2353
1	1759	2354
1	1757	2355
1	1756	2356
1	1749	2357
1	1738	2358
1	1735	2359
1	1699	2320
1	1703	2321
1	1701	2322
1	1690	2323
1	1682	2324
1	1679	2325
1	1678	2326
1	1672	2327
1	1670	2328
1	1671	2329
1	1673	2330
1	1670	2331
1	1672	2332
1	1679	2333
1	1690	2334
1	1705	2335
1	1715	2336
1	1716	2337
1	1714	2338
1	1707	2339
1	1719	2360
1	1713	2361
1	1710	2362
1	1710	2363
1	1710	2364
1	1710	2365
1	1710	2366
1	1695	2367
1	1677	2368
1	1655	2369
1	1645	2370
1	1646	2371
1	1652	2372
1	1661	2373
1	1683	2374
1	1697	2375
1	1702	2376
1	1700	2377
1	1698	2378
1	1697	2379
1	1697	2380
1	1703	2381
1	1699	2382
1	1693	2383
1	1688	2384
1	1686	2385
1	1682	2386
1	1679	2387
1	1674	2388
1	1678	2389
1	1678	2390
1	1678	2391
1	1679	2392
1	1683	2393
1	1686	2394
1	1686	2395
1	1685	2396
1	1682	2397
1	1683	2398
1	1683	2399
1	1682	2400
1	1675	2401
1	1667	2402
1	1661	2403
1	1661	2404
1	1658	2405
1	1657	2406
1	1660	2407
1	1665	2408
1	1672	2409
1	1682	2410
1	1695	2411
1	1697	2412
1	1699	2413
1	1705	2414
1	1712	2415
1	1729	2416
1	1747	2417
1	1764	2418
1	1779	2419
1	1778	2420
1	1769	2421
1	1764	2422
1	1747	2423
1	1728	2424
1	1704	2425
1	1686	2426
1	1659	2427
1	1645	2428
1	1634	2429
1	1621	2430
1	1618	2431
1	1613	2432
1	1616	2433
1	1616	2434
1	1618	2435
1	1632	2436
1	1646	2437
1	1665	2438
1	1690	2439
1	1719	2440
1	1738	2441
1	1752	2442
1	1764	2443
1	1764	2444
1	1759	2445
1	1742	2446
1	1724	2447
1	1709	2448
1	1701	2449
1	1697	2450
1	1695	2451
1	1697	2452
1	1699	2453
1	1701	2454
1	1703	2455
1	1703	2456
1	1700	2457
1	1704	2458
1	1712	2459
1	1708	2460
1	1700	2461
1	1691	2462
1	1684	2463
1	1678	2464
1	1686	2465
1	1693	2466
1	1712	2467
1	1724	2468
1	1738	2469
1	1744	2470
1	1751	2471
1	1754	2472
1	1754	2473
1	1757	2474
1	1751	2475
1	1744	2476
1	1736	2477
1	1725	2478
1	1711	2479
1	1695	2480
1	1675	2481
1	1662	2482
1	1649	2483
1	1635	2484
1	1634	2485
1	1642	2486
1	1655	2487
1	1670	2488
1	1686	2489
1	1701	2490
1	1712	2491
1	1729	2492
1	1746	2493
1	1757	2494
1	1769	2495
1	1773	2496
1	1777	2497
1	1782	2498
1	1783	2499
1	1777	2500
1	1782	2501
1	1785	2502
1	1785	2503
1	1791	2504
1	1788	2505
1	1770	2506
1	1756	2507
1	1742	2508
1	1721	2509
1	1697	2510
1	1676	2511
1	1665	2512
1	1670	2513
1	1683	2514
1	1698	2515
1	1717	2516
1	1734	2517
1	1755	2518
1	1773	2519
1	1790	2520
1	1803	2521
1	1809	2522
1	1801	2523
1	1791	2524
1	1775	2525
1	1755	2526
1	1742	2527
1	1740	2528
1	1744	2529
1	1751	2530
1	1764	2531
1	1764	2532
1	1775	2533
1	1778	2534
1	1783	2535
1	1787	2536
1	1795	2537
1	1813	2538
1	1818	2539
1	1821	2540
1	1811	2541
1	1803	2542
1	1796	2543
1	1791	2544
1	1779	2545
1	1766	2546
1	1746	2547
1	1724	2548
1	1708	2549
1	1695	2550
1	1686	2551
1	1682	2552
1	1678	2553
1	1682	2554
1	1690	2555
1	1692	2556
1	1692	2557
1	1697	2558
1	1701	2559
1	1712	2560
1	1724	2561
1	1733	2562
1	1739	2563
1	1738	2564
1	1726	2565
1	1713	2566
1	1701	2567
1	1694	2568
1	1697	2569
1	1701	2570
1	1705	2571
1	1713	2572
1	1716	2573
1	1716	2574
1	1713	2575
1	1715	2576
1	1708	2577
1	1698	2578
1	1695	2579
1	1692	2580
1	1686	2581
1	1679	2582
1	1668	2583
1	1647	2584
1	1630	2585
1	1616	2586
1	1609	2587
1	1607	2588
1	1607	2589
1	1612	2590
1	1632	2591
1	1647	2592
1	1662	2593
1	1686	2594
1	1711	2595
1	1736	2596
1	1751	2597
1	1755	2598
1	1751	2599
1	1741	2600
1	1717	2601
1	1705	2602
1	1694	2603
1	1682	2604
1	1664	2605
1	1656	2606
1	1639	2607
1	1632	2608
1	1626	2609
1	1630	2610
1	1635	2611
1	1647	2612
1	1661	2613
1	1674	2614
1	1683	2615
1	1675	2616
1	1674	2617
1	1674	2618
1	1675	2619
1	1683	2620
1	1699	2621
1	1713	2622
1	1736	2623
1	1757	2624
1	1790	2625
1	1818	2626
1	1842	2627
1	1875	2628
1	1922	2629
1	1965	2630
1	2004	2631
1	2041	2632
1	2075	2633
1	2105	2634
1	2140	2635
1	2183	2636
1	2222	2637
1	2281	2638
1	2345	2639
1	2408	2640
1	2460	2641
1	2496	2642
1	2523	2643
1	2539	2644
1	2548	2645
1	2540	2646
1	2536	2647
1	2527	2648
1	2512	2649
1	2482	2650
1	2445	2651
1	2399	2652
1	2341	2653
1	2279	2654
1	2208	2655
1	2131	2656
1	2052	2657
1	1965	2658
1	1872	2659
1	1777	2660
1	1683	2661
1	1594	2662
1	1517	2663
1	1451	2664
1	1401	2665
1	1359	2666
1	1323	2667
1	1296	2668
1	1287	2669
1	1290	2670
1	1306	2671
1	1327	2672
1	1358	2673
1	1408	2674
1	1461	2675
1	1506	2676
1	1555	2677
1	1596	2678
1	1634	2679
1	1657	2680
1	1674	2681
1	1679	2682
1	1683	2683
1	1686	2684
1	1688	2685
1	1698	2686
1	1701	2687
1	1700	2688
1	1699	2689
1	1692	2690
1	1676	2691
1	1667	2692
1	1658	2693
1	1646	2694
1	1634	2695
1	1634	2696
1	1636	2697
1	1644	2698
1	1651	2699
1	1661	2700
1	1676	2701
1	1690	2702
1	1701	2703
1	1713	2704
1	1726	2705
1	1719	2706
1	1720	2707
1	1720	2708
1	1719	2709
1	1717	2710
1	1724	2711
1	1725	2712
1	1723	2713
1	1726	2714
1	1734	2715
1	1744	2716
1	1752	2717
1	1753	2718
1	1750	2719
1	1742	2720
1	1731	2721
1	1725	2722
1	1713	2723
1	1705	2724
1	1703	2725
1	1706	2726
1	1697	2727
1	1694	2728
1	1694	2729
1	1684	2730
1	1680	2731
1	1685	2732
1	1697	2733
1	1712	2734
1	1727	2735
1	1742	2736
1	1755	2737
1	1764	2738
1	1764	2739
1	1757	2740
1	1755	2741
1	1748	2742
1	1746	2743
1	1742	2744
1	1738	2745
1	1731	2746
1	1722	2747
1	1716	2748
1	1718	2749
1	1721	2750
1	1721	2751
1	1728	2752
1	1738	2753
1	1746	2754
1	1751	2755
1	1751	2756
1	1750	2757
1	1747	2758
1	1753	2759
1	1765	2760
1	1775	2761
1	1783	2762
1	1782	2763
1	1777	2764
1	1765	2765
1	1738	2766
1	1709	2767
1	1686	2768
1	1678	2769
1	1670	2770
1	1671	2771
1	1677	2772
1	1686	2773
1	1690	2774
1	1698	2775
1	1712	2776
1	1731	2777
1	1743	2778
1	1751	2779
1	1762	2800
1	1760	2801
1	1757	2802
1	1755	2803
1	1752	2804
1	1751	2805
1	1759	2806
1	1760	2807
1	1762	2808
1	1762	2809
1	1765	2810
1	1778	2811
1	1791	2812
1	1814	2813
1	1823	2814
1	1827	2815
1	1821	2816
1	1820	2817
1	1820	2818
1	1823	2819
1	1823	2800
1	1830	2801
1	1830	2802
1	1826	2803
1	1817	2804
1	1795	2805
1	1773	2806
1	1756	2807
1	1744	2808
1	1739	2809
1	1737	2810
1	1728	2811
1	1738	2812
1	1749	2813
1	1760	2814
1	1769	2815
1	1782	2816
1	1791	2817
1	1809	2818
1	1826	2819
1	1841	2820
1	1850	2821
1	1854	2822
1	1850	2823
1	1841	2824
1	1822	2825
1	1801	2826
1	1791	2827
1	1781	2828
1	1778	2829
1	1787	2830
1	1800	2831
1	1808	2832
1	1823	2833
1	1838	2834
1	1854	2835
1	1868	2836
1	1877	2837
1	1882	2838
1	1880	2839
1	1870	2840
1	1856	2841
1	1850	2842
1	1846	2843
1	1843	2844
1	1835	2845
1	1832	2846
1	1829	2847
1	1830	2848
1	1835	2849
1	1842	2850
1	1844	2851
1	1847	2852
1	1852	2853
1	1856	2854
1	1862	2855
1	1859	2856
1	1856	2857
1	1854	2858
1	1856	2859
1	1859	2860
1	1870	2861
1	1882	2862
1	1895	2863
1	1908	2864
1	1922	2865
1	1931	2866
1	1930	2867
1	1921	2868
1	1907	2869
1	1896	2870
1	1884	2871
1	1890	2872
1	1903	2873
1	1921	2874
1	1937	2875
1	1961	2876
1	1974	2877
1	1983	2878
1	1981	2879
1	1974	2880
1	1962	2881
1	1945	2882
1	1924	2883
1	1906	2884
1	1884	2885
1	1869	2886
1	1856	2887
1	1856	2888
1	1857	2889
1	1862	2890
1	1869	2891
1	1869	2892
1	1870	2893
1	1869	2894
1	1867	2895
1	1861	2896
1	1867	2897
1	1877	2898
1	1895	2899
1	1906	2900
1	1906	2901
1	1903	2902
1	1888	2903
1	1871	2904
1	1862	2905
1	1856	2906
1	1845	2907
1	1843	2908
1	1843	2909
1	1846	2910
1	1856	2911
1	1869	2912
1	1875	2913
1	1881	2914
1	1890	2915
1	1888	2916
1	1895	2917
1	1904	2918
1	1906	2919
1	1898	2920
1	1888	2921
1	1860	2922
1	1831	2923
1	1801	2924
1	1780	2925
1	1761	2926
1	1735	2927
1	1721	2928
1	1719	2929
1	1722	2930
1	1719	2931
1	1715	2932
1	1714	2933
1	1713	2934
1	1711	2935
1	1708	2936
1	1712	2937
1	1706	2938
1	1697	2939
1	1686	2940
1	1675	2941
1	1672	2942
1	1663	2943
1	1662	2944
1	1661	2945
1	1651	2946
1	1643	2947
1	1643	2948
1	1645	2949
1	1647	2950
1	1654	2951
1	1654	2952
1	1674	2953
1	1686	2954
1	1698	2955
1	1710	2956
1	1713	2957
1	1717	2958
1	1719	2959
1	1727	2960
1	1718	2961
1	1710	2962
1	1693	2963
1	1675	2964
1	1659	2965
1	1647	2966
1	1632	2967
1	1618	2968
1	1607	2969
1	1599	2970
1	1596	2971
1	1605	2972
1	1619	2973
1	1634	2974
1	1647	2975
1	1647	2976
1	1646	2977
1	1642	2978
1	1633	2979
1	1615	2980
1	1602	2981
1	1581	2982
1	1562	2983
1	1547	2984
1	1532	2985
1	1531	2986
1	1539	2987
1	1547	2988
1	1555	2989
1	1563	2990
1	1581	2991
1	1607	2992
1	1634	2993
1	1655	2994
1	1670	2995
1	1686	2996
1	1693	2997
1	1705	2998
1	1716	2999
1	1724	3000
1	1726	3001
1	1718	3002
1	1710	3003
1	1688	3004
1	1665	3005
1	1644	3006
1	1632	3007
1	1621	3008
1	1612	3009
1	1610	3010
1	1613	3011
1	1610	3012
1	1611	3013
1	1621	3014
1	1633	3015
1	1637	3016
1	1635	3017
1	1636	3018
1	1636	3019
1	1633	3020
1	1611	3021
1	1598	3022
1	1592	3023
1	1584	3024
1	1579	3025
1	1580	3026
1	1585	3027
1	1594	3028
1	1607	3029
1	1605	3030
1	1607	3031
1	1612	3032
1	1616	3033
1	1618	3034
1	1622	3035
1	1625	3036
1	1631	3037
1	1638	3038
1	1646	3039
1	1647	3040
1	1647	3041
1	1647	3042
1	1649	3043
1	1657	3044
1	1660	3045
1	1662	3046
1	1660	3047
1	1660	3048
1	1656	3049
1	1652	3050
1	1646	3051
1	1647	3052
1	1648	3053
1	1645	3054
1	1638	3055
1	1639	3056
1	1641	3057
1	1638	3058
1	1634	3059
1	1620	3060
1	1615	3061
1	1616	3062
1	1626	3063
1	1631	3064
1	1634	3065
1	1625	3066
1	1620	3067
1	1625	3068
1	1634	3069
1	1644	3070
1	1660	3071
1	1671	3072
1	1685	3073
1	1698	3074
1	1710	3075
1	1718	3076
1	1725	3077
1	1725	3078
1	1724	3079
1	1724	3080
1	1707	3081
1	1690	3082
1	1672	3083
1	1660	3084
1	1650	3085
1	1651	3086
1	1647	3087
1	1647	3088
1	1658	3089
1	1668	3090
1	1683	3091
1	1698	3092
1	1710	3093
1	1716	3094
1	1724	3095
1	1718	3096
1	1714	3097
1	1712	3098
1	1712	3099
1	1712	3100
1	1712	3101
1	1704	3102
1	1689	3103
1	1681	3104
1	1678	3105
1	1677	3106
1	1681	3107
1	1685	3108
1	1688	3109
1	1691	3110
1	1686	3111
1	1687	3112
1	1692	3113
1	1701	3114
1	1713	3115
1	1722	3116
1	1726	3117
1	1728	3118
1	1731	3119
1	1704	3140
1	1686	3141
1	1665	3142
1	1651	3143
1	1635	3144
1	1621	3145
1	1616	3146
1	1615	3147
1	1620	3148
1	1634	3149
1	1652	3150
1	1668	3151
1	1678	3152
1	1683	3153
1	1688	3154
1	1699	3155
1	1701	3156
1	1710	3157
1	1712	3158
1	1714	3159
1	1727	3120
1	1716	3121
1	1701	3122
1	1686	3123
1	1674	3124
1	1662	3125
1	1651	3126
1	1646	3127
1	1647	3128
1	1647	3129
1	1650	3130
1	1649	3131
1	1643	3132
1	1650	3133
1	1660	3134
1	1675	3135
1	1691	3136
1	1705	3137
1	1711	3138
1	1711	3139
1	1716	3160
1	1727	3161
1	1728	3162
1	1724	3163
1	1712	3164
1	1696	3165
1	1682	3166
1	1670	3167
1	1656	3168
1	1636	3169
1	1620	3170
1	1603	3171
1	1593	3172
1	1600	3173
1	1610	3174
1	1629	3175
1	1644	3176
1	1660	3177
1	1675	3178
1	1686	3179
1	1782	3200
1	1764	3201
1	1755	3202
1	1743	3203
1	1721	3204
1	1699	3205
1	1681	3206
1	1651	3207
1	1621	3208
1	1593	3209
1	1579	3210
1	1578	3211
1	1587	3212
1	1602	3213
1	1613	3214
1	1630	3215
1	1643	3216
1	1661	3217
1	1682	3218
1	1695	3219
1	1690	3180
1	1688	3181
1	1685	3182
1	1685	3183
1	1684	3184
1	1680	3185
1	1672	3186
1	1664	3187
1	1660	3188
1	1660	3189
1	1660	3190
1	1665	3191
1	1669	3192
1	1670	3193
1	1678	3194
1	1692	3195
1	1713	3196
1	1737	3197
1	1760	3198
1	1779	3199
1	1638	3240
1	1647	3241
1	1661	3242
1	1677	3243
1	1688	3244
1	1700	3245
1	1699	3246
1	1701	3247
1	1701	3248
1	1700	3249
1	1699	3250
1	1699	3251
1	1691	3252
1	1692	3253
1	1694	3254
1	1698	3255
1	1708	3256
1	1726	3257
1	1738	3258
1	1742	3259
1	1709	3220
1	1724	3221
1	1733	3222
1	1737	3223
1	1730	3224
1	1712	3225
1	1693	3226
1	1678	3227
1	1660	3228
1	1638	3229
1	1622	3230
1	1608	3231
1	1599	3232
1	1593	3233
1	1593	3234
1	1598	3235
1	1599	3236
1	1603	3237
1	1607	3238
1	1628	3239
1	1740	3260
1	1733	3261
1	1715	3262
1	1700	3263
1	1684	3264
1	1670	3265
1	1660	3266
1	1644	3267
1	1625	3268
1	1610	3269
1	1606	3270
1	1607	3271
1	1615	3272
1	1625	3273
1	1634	3274
1	1641	3275
1	1641	3276
1	1647	3277
1	1651	3278
1	1656	3279
1	1703	3300
1	1702	3301
1	1699	3302
1	1687	3303
1	1679	3304
1	1664	3305
1	1648	3306
1	1635	3307
1	1620	3308
1	1618	3309
1	1625	3310
1	1644	3311
1	1661	3312
1	1682	3313
1	1698	3314
1	1712	3315
1	1724	3316
1	1737	3317
1	1741	3318
1	1746	3319
1	1660	3280
1	1665	3281
1	1670	3282
1	1674	3283
1	1674	3284
1	1677	3285
1	1682	3286
1	1683	3287
1	1681	3288
1	1674	3289
1	1670	3290
1	1660	3291
1	1658	3292
1	1659	3293
1	1675	3294
1	1688	3295
1	1700	3296
1	1703	3297
1	1703	3298
1	1700	3299
1	1753	3320
1	1749	3321
1	1746	3322
1	1738	3323
1	1728	3324
1	1712	3325
1	1699	3326
1	1677	3327
1	1664	3328
1	1648	3329
1	1642	3330
1	1633	3331
1	1629	3332
1	1634	3333
1	1647	3334
1	1672	3335
1	1695	3336
1	1712	3337
1	1718	3338
1	1724	3339
1	1728	3340
1	1724	3341
1	1717	3342
1	1710	3343
1	1708	3344
1	1698	3345
1	1685	3346
1	1687	3347
1	1695	3348
1	1702	3349
1	1712	3350
1	1715	3351
1	1726	3352
1	1733	3353
1	1746	3354
1	1761	3355
1	1778	3356
1	1791	3357
1	1802	3358
1	1817	3359
1	1818	3360
1	1817	3361
1	1809	3362
1	1791	3363
1	1776	3364
1	1760	3365
1	1741	3366
1	1733	3367
1	1726	3368
1	1723	3369
1	1718	3370
1	1721	3371
1	1723	3372
1	1724	3373
1	1726	3374
1	1723	3375
1	1721	3376
1	1719	3377
1	1715	3378
1	1710	3379
1	1706	3380
1	1699	3381
1	1701	3382
1	1707	3383
1	1710	3384
1	1715	3385
1	1726	3386
1	1725	3387
1	1722	3388
1	1718	3389
1	1714	3390
1	1711	3391
1	1700	3392
1	1690	3393
1	1686	3394
1	1692	3395
1	1690	3396
1	1686	3397
1	1681	3398
1	1678	3399
1	1675	3400
1	1681	3401
1	1678	3402
1	1673	3403
1	1664	3404
1	1655	3405
1	1638	3406
1	1626	3407
1	1616	3408
1	1610	3409
1	1615	3410
1	1621	3411
1	1638	3412
1	1661	3413
1	1686	3414
1	1702	3415
1	1712	3416
1	1712	3417
1	1710	3418
1	1699	3419
1	1686	3420
1	1673	3421
1	1661	3422
1	1655	3423
1	1648	3424
1	1644	3425
1	1631	3426
1	1620	3427
1	1609	3428
1	1612	3429
1	1621	3430
1	1625	3431
1	1622	3432
1	1634	3433
1	1634	3434
1	1637	3435
1	1641	3436
1	1643	3437
1	1641	3438
1	1638	3439
1	1634	3440
1	1620	3441
1	1611	3442
1	1602	3443
1	1594	3444
1	1589	3445
1	1594	3446
1	1598	3447
1	1605	3448
1	1613	3449
1	1627	3450
1	1642	3451
1	1654	3452
1	1670	3453
1	1688	3454
1	1710	3455
1	1722	3456
1	1738	3457
1	1760	3458
1	1788	3459
1	1829	3460
1	1875	3461
1	1922	3462
1	1970	3463
1	2016	3464
1	2070	3465
1	2129	3466
1	2189	3467
1	2264	3468
1	2332	3469
1	2398	3470
1	2450	3471
1	2498	3472
1	2538	3473
1	2581	3474
1	2620	3475
1	2644	3476
1	2651	3477
1	2637	3478
1	2596	3479
1	1345	3500
1	1358	3501
1	1377	3502
1	1398	3503
1	1408	3504
1	1422	3505
1	1442	3506
1	1463	3507
1	1490	3508
1	1508	3509
1	1530	3510
1	1554	3511
1	1570	3512
1	1582	3513
1	1595	3514
1	1607	3515
1	1621	3516
1	1644	3517
1	1672	3518
1	1690	3519
1	2545	3480
1	2486	3481
1	2407	3482
1	2325	3483
1	2230	3484
1	2138	3485
1	2044	3486
1	1952	3487
1	1859	3488
1	1764	3489
1	1679	3490
1	1602	3491
1	1527	3492
1	1461	3493
1	1411	3494
1	1366	3495
1	1342	3496
1	1333	3497
1	1332	3498
1	1332	3499
1	1598	3540
1	1594	3541
1	1593	3542
1	1592	3543
1	1594	3544
1	1602	3545
1	1607	3546
1	1619	3547
1	1638	3548
1	1654	3549
1	1668	3550
1	1687	3551
1	1700	3552
1	1706	3553
1	1712	3554
1	1724	3555
1	1738	3556
1	1751	3557
1	1760	3558
1	1764	3559
1	1699	3520
1	1708	3521
1	1704	3522
1	1692	3523
1	1677	3524
1	1660	3525
1	1639	3526
1	1626	3527
1	1618	3528
1	1613	3529
1	1616	3530
1	1625	3531
1	1630	3532
1	1629	3533
1	1625	3534
1	1628	3535
1	1623	3536
1	1616	3537
1	1607	3538
1	1607	3539
1	1754	3560
1	1729	3561
1	1712	3562
1	1692	3563
1	1679	3564
1	1664	3565
1	1658	3566
1	1647	3567
1	1644	3568
1	1646	3569
1	1655	3570
1	1665	3571
1	1682	3572
1	1692	3573
1	1699	3574
1	1703	3575
1	1696	3576
1	1688	3577
1	1685	3578
1	1679	3579
1	1674	3580
1	1669	3581
1	1660	3582
1	1651	3583
1	1647	3584
1	1647	3585
1	1646	3586
1	1646	3587
1	1647	3588
1	1654	3589
1	1657	3590
1	1660	3591
1	1664	3592
1	1667	3593
1	1662	3594
1	1661	3595
1	1671	3596
1	1677	3597
1	1685	3598
1	1688	3599
1	1686	3600
1	1681	3601
1	1672	3602
1	1659	3603
1	1644	3604
1	1643	3605
1	1634	3606
1	1633	3607
1	1638	3608
1	1657	3609
1	1673	3610
1	1697	3611
1	1707	3612
1	1704	3613
1	1696	3614
1	1688	3615
1	1686	3616
1	1687	3617
1	1699	3618
1	1712	3619
1	1761	3640
1	1759	3641
1	1762	3642
1	1757	3643
1	1754	3644
1	1748	3645
1	1748	3646
1	1748	3647
1	1747	3648
1	1751	3649
1	1762	3650
1	1769	3651
1	1777	3652
1	1782	3653
1	1791	3654
1	1801	3655
1	1819	3656
1	1834	3657
1	1845	3658
1	1856	3659
1	1718	3620
1	1712	3621
1	1701	3622
1	1686	3623
1	1665	3624
1	1649	3625
1	1643	3626
1	1628	3627
1	1628	3628
1	1623	3629
1	1618	3630
1	1625	3631
1	1638	3632
1	1661	3633
1	1680	3634
1	1699	3635
1	1712	3636
1	1723	3637
1	1734	3638
1	1743	3639
1	1860	3660
1	1854	3661
1	1838	3662
1	1811	3663
1	1770	3664
1	1739	3665
1	1712	3666
1	1697	3667
1	1690	3668
1	1692	3669
1	1697	3670
1	1712	3671
1	1718	3672
1	1728	3673
1	1737	3674
1	1741	3675
1	1751	3676
1	1757	3677
1	1759	3678
1	1757	3679
1	1751	3680
1	1738	3681
1	1732	3682
1	1723	3683
1	1711	3684
1	1701	3685
1	1705	3686
1	1712	3687
1	1723	3688
1	1744	3689
1	1761	3690
1	1776	3691
1	1793	3692
1	1817	3693
1	1837	3694
1	1850	3695
1	1851	3696
1	1853	3697
1	1854	3698
1	1855	3699
1	1854	3700
1	1851	3701
1	1842	3702
1	1831	3703
1	1822	3704
1	1817	3705
1	1817	3706
1	1817	3707
1	1821	3708
1	1828	3709
1	1837	3710
1	1841	3711
1	1843	3712
1	1844	3713
1	1847	3714
1	1856	3715
1	1872	3716
1	1890	3717
1	1907	3718
1	1920	3719
1	1922	3720
1	1922	3721
1	1913	3722
1	1896	3723
1	1880	3724
1	1860	3725
1	1844	3726
1	1842	3727
1	1841	3728
1	1834	3729
1	1817	3730
1	1803	3731
1	1791	3732
1	1793	3733
1	1799	3734
1	1815	3735
1	1829	3736
1	1842	3737
1	1855	3738
1	1857	3739
1	1856	3740
1	1844	3741
1	1831	3742
1	1809	3743
1	1779	3744
1	1764	3745
1	1743	3746
1	1737	3747
1	1731	3748
1	1731	3749
1	1730	3750
1	1730	3751
1	1729	3752
1	1731	3753
1	1733	3754
1	1738	3755
1	1742	3756
1	1746	3757
1	1741	3758
1	1738	3759
1	1731	3760
1	1721	3761
1	1707	3762
1	1697	3763
1	1685	3764
1	1666	3765
1	1649	3766
1	1635	3767
1	1632	3768
1	1626	3769
1	1623	3770
1	1610	3771
1	1603	3772
1	1596	3773
1	1595	3774
1	1597	3775
1	1608	3776
1	1616	3777
1	1623	3778
1	1632	3779
1	1641	3780
1	1649	3781
1	1654	3782
1	1649	3783
1	1642	3784
1	1634	3785
1	1612	3786
1	1596	3787
1	1589	3788
1	1592	3789
1	1598	3790
1	1607	3791
1	1607	3792
1	1607	3793
1	1607	3794
1	1619	3795
1	1629	3796
1	1634	3797
1	1635	3798
1	1641	3799
1	1650	3800
1	1646	3801
1	1638	3802
1	1631	3803
1	1618	3804
1	1602	3805
1	1590	3806
1	1577	3807
1	1573	3808
1	1574	3809
1	1580	3810
1	1581	3811
1	1581	3812
1	1576	3813
1	1562	3814
1	1553	3815
1	1539	3816
1	1537	3817
1	1537	3818
1	1541	3819
1	1607	3840
1	1607	3841
1	1610	3842
1	1611	3843
1	1612	3844
1	1612	3845
1	1602	3846
1	1589	3847
1	1581	3848
1	1571	3849
1	1557	3850
1	1555	3851
1	1554	3852
1	1557	3853
1	1570	3854
1	1581	3855
1	1589	3856
1	1584	3857
1	1572	3858
1	1560	3859
1	1544	3820
1	1554	3821
1	1556	3822
1	1557	3823
1	1555	3824
1	1548	3825
1	1529	3826
1	1517	3827
1	1515	3828
1	1517	3829
1	1525	3830
1	1535	3831
1	1544	3832
1	1555	3833
1	1569	3834
1	1582	3835
1	1581	3836
1	1586	3837
1	1591	3838
1	1600	3839
1	1551	3860
1	1538	3861
1	1535	3862
1	1539	3863
1	1551	3864
1	1555	3865
1	1561	3866
1	1565	3867
1	1575	3868
1	1594	3869
1	1618	3870
1	1641	3871
1	1658	3872
1	1670	3873
1	1671	3874
1	1664	3875
1	1649	3876
1	1643	3877
1	1634	3878
1	1618	3879
1	1607	3880
1	1606	3881
1	1597	3882
1	1597	3883
1	1598	3884
1	1596	3885
1	1590	3886
1	1585	3887
1	1580	3888
1	1571	3889
1	1566	3890
1	1555	3891
1	1546	3892
1	1544	3893
1	1542	3894
1	1542	3895
1	1542	3896
1	1542	3897
1	1544	3898
1	1548	3899
1	1549	3900
1	1554	3901
1	1557	3902
1	1565	3903
1	1569	3904
1	1577	3905
1	1580	3906
1	1590	3907
1	1602	3908
1	1615	3909
1	1631	3910
1	1647	3911
1	1654	3912
1	1660	3913
1	1663	3914
1	1660	3915
1	1660	3916
1	1661	3917
1	1664	3918
1	1672	3919
1	1681	3920
1	1675	3921
1	1672	3922
1	1673	3923
1	1662	3924
1	1642	3925
1	1623	3926
1	1597	3927
1	1587	3928
1	1581	3929
1	1580	3930
1	1581	3931
1	1579	3932
1	1581	3933
1	1593	3934
1	1610	3935
1	1632	3936
1	1647	3937
1	1665	3938
1	1675	3939
1	1661	3960
1	1664	3961
1	1670	3962
1	1672	3963
1	1666	3964
1	1655	3965
1	1625	3966
1	1602	3967
1	1589	3968
1	1584	3969
1	1586	3970
1	1597	3971
1	1603	3972
1	1608	3973
1	1619	3974
1	1629	3975
1	1642	3976
1	1655	3977
1	1660	3978
1	1660	3979
1	1686	3940
1	1680	3941
1	1677	3942
1	1667	3943
1	1661	3944
1	1651	3945
1	1645	3946
1	1634	3947
1	1632	3948
1	1635	3949
1	1646	3950
1	1649	3951
1	1659	3952
1	1665	3953
1	1680	3954
1	1687	3955
1	1693	3956
1	1685	3957
1	1670	3958
1	1661	3959
1	1656	3980
1	1635	3981
1	1625	3982
1	1610	3983
1	1593	3984
1	1577	3985
1	1563	3986
1	1550	3987
1	1530	3988
1	1529	3989
1	1524	3990
1	1530	3991
1	1543	3992
1	1556	3993
1	1570	3994
1	1590	3995
1	1600	3996
1	1611	3997
1	1625	3998
1	1629	3999
1	1628	4000
1	1622	4001
1	1608	4002
1	1602	4003
1	1591	4004
1	1580	4005
1	1576	4006
1	1579	4006
1	1584	4008
1	1596	4009
1	1609	4010
1	1616	4011
1	1629	4012
1	1638	4013
1	1649	4014
1	1659	4014
1	1671	4016
1	1672	4017
1	1671	4018
1	1674	4019
1	1678	4020
1	1681	4021
1	1681	4022
1	1678	4022
1	1674	4024
1	1672	4025
1	1664	4026
1	1661	4027
1	1657	4028
1	1648	4029
1	1639	4030
1	1634	4030
1	1629	4032
1	1623	4033
1	1631	4034
1	1638	4035
1	1647	4036
1	1656	4037
1	1665	4038
1	1674	4038
1	1678	4040
1	1672	4041
1	1670	4042
1	1665	4043
1	1664	4044
1	1657	4045
1	1647	4046
1	1634	4046
1	1613	4048
1	1592	4049
1	1581	4050
1	1580	4051
1	1581	4052
1	1582	4053
1	1585	4054
1	1592	4054
1	1596	4056
1	1602	4057
1	1606	4058
1	1608	4059
1	1615	4060
1	1629	4061
1	1634	4062
1	1634	4062
1	1631	4064
1	1621	4065
1	1617	4066
1	1620	4067
1	1619	4068
1	1617	4069
1	1611	4070
1	1601	4070
1	1600	4072
1	1602	4073
1	1607	4074
1	1607	4075
1	1615	4076
1	1615	4077
1	1618	4078
1	1616	4078
1	1615	4080
1	1613	4081
1	1608	4082
1	1605	4083
1	1596	4084
1	1587	4085
1	1575	4086
1	1563	4086
1	1553	4088
1	1541	4089
1	1536	4090
1	1547	4091
1	1569	4092
1	1593	4093
1	1623	4094
1	1645	4094
1	1661	4096
1	1684	4097
1	1703	4098
1	1715	4099
1	1726	4100
1	1721	4101
1	1715	4102
1	1698	4103
1	1677	4104
1	1657	4105
1	1637	4106
1	1607	4107
1	1579	4108
1	1557	4109
1	1551	4110
1	1556	4111
1	1571	4112
1	1582	4113
1	1596	4114
1	1608	4115
1	1609	4116
1	1607	4117
1	1607	4118
1	1607	4119
1	1607	4120
1	1616	4121
1	1629	4122
1	1634	4123
1	1647	4124
1	1657	4125
1	1659	4126
1	1659	4127
1	1659	4128
1	1656	4129
1	1651	4130
1	1647	4131
1	1647	4132
1	1651	4133
1	1652	4134
1	1656	4135
1	1647	4136
1	1646	4137
1	1648	4138
1	1659	4139
1	1660	4140
1	1660	4141
1	1656	4142
1	1647	4143
1	1634	4144
1	1620	4145
1	1596	4146
1	1578	4147
1	1563	4148
1	1556	4149
1	1555	4150
1	1564	4151
1	1570	4152
1	1580	4153
1	1599	4154
1	1623	4155
1	1646	4156
1	1671	4157
1	1688	4158
1	1704	4159
1	1712	4160
1	1705	4161
1	1702	4162
1	1697	4163
1	1686	4164
1	1674	4165
1	1665	4166
1	1648	4167
1	1631	4168
1	1615	4169
1	1603	4170
1	1595	4171
1	1597	4172
1	1602	4173
1	1613	4174
1	1634	4175
1	1652	4176
1	1677	4177
1	1694	4178
1	1707	4179
1	1712	4180
1	1724	4181
1	1724	4182
1	1712	4183
1	1692	4184
1	1665	4185
1	1643	4186
1	1619	4187
1	1604	4188
1	1593	4189
1	1591	4190
1	1591	4191
1	1602	4192
1	1613	4193
1	1629	4194
1	1643	4195
1	1663	4196
1	1677	4197
1	1686	4198
1	1690	4199
1	1688	4200
1	1688	4201
1	1695	4202
1	1701	4203
1	1708	4204
1	1715	4205
1	1716	4206
1	1714	4207
1	1716	4208
1	1713	4209
1	1711	4210
1	1710	4211
1	1697	4212
1	1686	4213
1	1674	4214
1	1662	4215
1	1668	4216
1	1685	4217
1	1705	4218
1	1733	4219
1	1755	4220
1	1765	4221
1	1782	4222
1	1796	4223
1	1795	4224
1	1790	4225
1	1782	4226
1	1760	4227
1	1751	4228
1	1728	4229
1	1713	4230
1	1703	4231
1	1697	4232
1	1689	4233
1	1687	4234
1	1688	4235
1	1697	4236
1	1706	4237
1	1713	4238
1	1723	4239
1	1727	4240
1	1728	4241
1	1719	4242
1	1707	4243
1	1696	4244
1	1678	4245
1	1655	4246
1	1633	4247
1	1612	4248
1	1608	4249
1	1615	4250
1	1613	4251
1	1616	4252
1	1618	4253
1	1628	4254
1	1634	4255
1	1645	4256
1	1650	4257
1	1656	4258
1	1656	4259
1	1656	4260
1	1653	4261
1	1647	4262
1	1636	4263
1	1625	4264
1	1618	4265
1	1607	4266
1	1606	4267
1	1605	4268
1	1602	4269
1	1605	4270
1	1611	4271
1	1613	4272
1	1620	4273
1	1630	4274
1	1642	4275
1	1653	4276
1	1661	4277
1	1664	4278
1	1667	4279
1	1665	4280
1	1658	4281
1	1658	4282
1	1659	4283
1	1657	4284
1	1656	4285
1	1647	4286
1	1639	4287
1	1634	4288
1	1630	4289
1	1624	4290
1	1619	4291
1	1618	4292
1	1620	4293
1	1625	4294
1	1632	4295
1	1629	4296
1	1631	4297
1	1631	4298
1	1630	4299
1	1629	4300
1	1620	4301
1	1602	4302
1	1587	4303
1	1581	4304
1	1582	4305
1	1584	4306
1	1581	4307
1	1581	4308
1	1583	4309
1	1589	4310
1	1595	4311
1	1616	4312
1	1642	4313
1	1676	4314
1	1712	4315
1	1755	4316
1	1795	4317
1	1840	4318
1	1880	4319
1	1922	4320
1	1961	4321
1	2001	4322
1	2045	4323
1	2088	4324
1	2131	4325
1	2170	4326
1	2213	4327
1	2258	4328
1	2298	4329
1	2342	4330
1	2391	4331
1	2435	4332
1	2485	4333
1	2523	4334
1	2554	4335
1	2563	4336
1	2558	4337
1	2535	4338
1	2500	4339
1	2445	4340
1	2370	4341
1	2300	4342
1	2222	4343
1	2139	4344
1	2052	4345
1	1975	4346
1	1886	4347
1	1793	4348
1	1712	4349
1	1639	4350
1	1577	4351
1	1527	4352
1	1476	4353
1	1436	4354
1	1398	4355
1	1356	4356
1	1338	4357
1	1324	4358
1	1319	4359
1	1323	4360
1	1340	4361
1	1359	4362
1	1390	4363
1	1412	4364
1	1433	4365
1	1454	4366
1	1476	4367
1	1489	4368
1	1503	4369
1	1524	4370
1	1532	4371
1	1553	4372
1	1572	4373
1	1589	4374
1	1603	4375
1	1619	4376
1	1633	4377
1	1641	4378
1	1647	4379
1	1647	4380
1	1643	4381
1	1643	4382
1	1643	4383
1	1641	4384
1	1642	4385
1	1636	4386
1	1629	4387
1	1621	4388
1	1620	4389
1	1626	4390
1	1634	4391
1	1635	4392
1	1641	4393
1	1651	4394
1	1660	4395
1	1663	4396
1	1673	4397
1	1686	4398
1	1705	4399
1	1721	4400
1	1724	4401
1	1731	4402
1	1733	4403
1	1726	4404
1	1715	4405
1	1708	4406
1	1690	4407
1	1681	4408
1	1671	4409
1	1668	4410
1	1664	4411
1	1660	4412
1	1660	4413
1	1660	4414
1	1661	4415
1	1652	4416
1	1646	4417
1	1646	4418
1	1646	4419
1	1644	4420
1	1647	4421
1	1647	4422
1	1641	4423
1	1632	4424
1	1629	4425
1	1620	4426
1	1619	4427
1	1616	4428
1	1611	4429
1	1611	4430
1	1618	4431
1	1625	4432
1	1625	4433
1	1623	4434
1	1629	4435
1	1645	4436
1	1661	4437
1	1676	4438
1	1688	4439
1	1696	4440
1	1699	4441
1	1705	4442
1	1710	4443
1	1712	4444
1	1710	4445
1	1705	4446
1	1704	4447
1	1708	4448
1	1707	4449
1	1699	4450
1	1688	4451
1	1678	4452
1	1665	4453
1	1656	4454
1	1646	4455
1	1642	4456
1	1634	4457
1	1629	4458
1	1628	4459
1	1629	4460
1	1629	4461
1	1634	4462
1	1650	4463
1	1661	4464
1	1672	4465
1	1686	4466
1	1688	4467
1	1688	4468
1	1692	4469
1	1696	4470
1	1695	4471
1	1691	4472
1	1697	4473
1	1704	4474
1	1712	4475
1	1713	4476
1	1723	4477
1	1727	4478
1	1721	4479
1	1784	4500
1	1788	4501
1	1787	4502
1	1785	4503
1	1782	4504
1	1776	4505
1	1764	4506
1	1755	4507
1	1748	4508
1	1741	4509
1	1738	4510
1	1751	4511
1	1755	4512
1	1764	4513
1	1773	4514
1	1781	4515
1	1778	4516
1	1775	4517
1	1773	4518
1	1770	4519
1	1712	4480
1	1712	4481
1	1710	4482
1	1705	4483
1	1692	4484
1	1681	4485
1	1670	4486
1	1660	4487
1	1652	4488
1	1652	4489
1	1649	4490
1	1642	4491
1	1639	4492
1	1647	4493
1	1661	4494
1	1684	4495
1	1712	4496
1	1738	4497
1	1755	4498
1	1769	4499
1	1769	4520
1	1766	4521
1	1769	4522
1	1767	4523
1	1764	4524
1	1764	4525
1	1767	4526
1	1759	4527
1	1762	4528
1	1761	4529
1	1765	4530
1	1779	4531
1	1795	4532
1	1817	4533
1	1827	4534
1	1826	4535
1	1819	4536
1	1813	4537
1	1800	4538
1	1791	4539
1	1777	4540
1	1764	4541
1	1764	4542
1	1760	4543
1	1763	4544
1	1764	4545
1	1769	4546
1	1776	4547
1	1782	4548
1	1787	4549
1	1795	4550
1	1796	4551
1	1806	4552
1	1819	4553
1	1837	4554
1	1856	4555
1	1878	4556
1	1895	4557
1	1897	4558
1	1897	4559
1	1895	4560
1	1895	4561
1	1883	4562
1	1869	4563
1	1860	4564
1	1843	4565
1	1821	4566
1	1819	4567
1	1818	4568
1	1817	4569
1	1814	4570
1	1809	4571
1	1798	4572
1	1791	4573
1	1792	4574
1	1809	4575
1	1818	4576
1	1832	4577
1	1844	4578
1	1856	4579
1	1859	4580
1	1856	4581
1	1856	4582
1	1856	4583
1	1854	4584
1	1845	4585
1	1843	4586
1	1832	4587
1	1824	4588
1	1815	4589
1	1798	4590
1	1792	4591
1	1791	4592
1	1791	4593
1	1800	4594
1	1809	4595
1	1809	4596
1	1817	4597
1	1823	4598
1	1823	4599
1	1818	4600
1	1821	4601
1	1814	4602
1	1801	4603
1	1794	4604
1	1791	4605
1	1782	4606
1	1765	4607
1	1751	4608
1	1737	4609
1	1726	4610
1	1718	4611
1	1719	4612
1	1728	4613
1	1738	4614
1	1755	4615
1	1769	4616
1	1775	4617
1	1786	4618
1	1791	4619
1	1793	4620
1	1790	4621
1	1786	4622
1	1778	4623
1	1767	4624
1	1755	4625
1	1740	4626
1	1733	4627
1	1722	4628
1	1712	4629
1	1698	4630
1	1679	4631
1	1662	4632
1	1643	4633
1	1634	4634
1	1631	4635
1	1629	4636
1	1633	4637
1	1637	4638
1	1644	4639
1	1649	4640
1	1652	4641
1	1652	4642
1	1647	4643
1	1637	4644
1	1631	4645
1	1621	4646
1	1607	4647
1	1597	4648
1	1593	4649
1	1587	4650
1	1585	4651
1	1589	4652
1	1594	4653
1	1598	4654
1	1602	4655
1	1597	4656
1	1598	4657
1	1607	4658
1	1608	4659
1	1607	4660
1	1609	4661
1	1600	4662
1	1584	4663
1	1562	4664
1	1539	4665
1	1518	4666
1	1503	4667
1	1492	4668
1	1494	4669
1	1499	4670
1	1501	4671
1	1507	4672
1	1519	4673
1	1530	4674
1	1548	4675
1	1563	4676
1	1564	4677
1	1562	4678
1	1569	4679
1	1581	4680
1	1591	4681
1	1599	4682
1	1602	4683
1	1598	4684
1	1587	4685
1	1557	4686
1	1533	4687
1	1514	4688
1	1499	4689
1	1490	4690
1	1494	4691
1	1503	4692
1	1524	4693
1	1546	4694
1	1570	4695
1	1594	4696
1	1616	4697
1	1625	4698
1	1634	4699
1	1635	4700
1	1632	4701
1	1625	4702
1	1620	4703
1	1608	4704
1	1595	4705
1	1592	4706
1	1586	4707
1	1584	4708
1	1581	4709
1	1580	4710
1	1575	4711
1	1572	4712
1	1580	4713
1	1589	4714
1	1602	4715
1	1607	4716
1	1618	4717
1	1629	4718
1	1634	4719
1	1632	4720
1	1628	4721
1	1616	4722
1	1605	4723
1	1592	4724
1	1581	4725
1	1567	4726
1	1557	4727
1	1552	4728
1	1547	4729
1	1539	4730
1	1536	4731
1	1541	4732
1	1544	4733
1	1557	4734
1	1580	4735
1	1598	4736
1	1616	4737
1	1627	4738
1	1633	4739
1	1633	4740
1	1621	4741
1	1604	4742
1	1579	4743
1	1550	4744
1	1522	4745
1	1485	4746
1	1461	4747
1	1451	4748
1	1456	4749
1	1472	4750
1	1494	4751
1	1518	4752
1	1550	4753
1	1577	4754
1	1603	4755
1	1625	4756
1	1638	4757
1	1649	4758
1	1660	4759
1	1669	4760
1	1675	4761
1	1685	4762
1	1682	4763
1	1673	4764
1	1661	4765
1	1643	4766
1	1630	4767
1	1625	4768
1	1626	4769
1	1632	4770
1	1639	4771
1	1639	4772
1	1643	4773
1	1652	4774
1	1664	4775
1	1662	4776
1	1660	4777
1	1660	4778
1	1660	4779
1	1659	4780
1	1656	4781
1	1648	4782
1	1641	4783
1	1634	4784
1	1619	4785
1	1604	4786
1	1580	4787
1	1563	4788
1	1555	4789
1	1553	4790
1	1554	4791
1	1555	4792
1	1564	4793
1	1572	4794
1	1581	4795
1	1600	4796
1	1615	4797
1	1629	4798
1	1638	4799
1	1644	4800
1	1644	4801
1	1642	4802
1	1638	4803
1	1638	4804
1	1640	4805
1	1634	4806
1	1633	4807
1	1629	4808
1	1625	4809
1	1619	4810
1	1615	4811
1	1605	4812
1	1587	4813
1	1580	4814
1	1576	4815
1	1571	4816
1	1572	4817
1	1573	4818
1	1581	4819
1	1595	4820
1	1606	4821
1	1620	4822
1	1634	4823
1	1645	4824
1	1655	4825
1	1668	4826
1	1670	4827
1	1686	4828
1	1692	4829
1	1694	4830
1	1698	4831
1	1693	4832
1	1685	4833
1	1678	4834
1	1670	4835
1	1664	4836
1	1665	4837
1	1661	4838
1	1660	4839
1	1660	4840
1	1659	4841
1	1659	4842
1	1651	4843
1	1647	4844
1	1634	4845
1	1625	4846
1	1615	4847
1	1607	4848
1	1602	4849
1	1589	4850
1	1580	4851
1	1579	4852
1	1580	4853
1	1578	4854
1	1581	4855
1	1594	4856
1	1606	4857
1	1616	4858
1	1625	4859
1	1629	4860
1	1625	4861
1	1620	4862
1	1613	4863
1	1607	4864
1	1601	4865
1	1592	4866
1	1585	4867
1	1582	4868
1	1574	4869
1	1562	4870
1	1557	4871
1	1550	4872
1	1549	4873
1	1553	4874
1	1557	4875
1	1564	4876
1	1581	4877
1	1606	4878
1	1629	4879
1	1649	4880
1	1662	4881
1	1675	4882
1	1682	4883
1	1683	4884
1	1683	4885
1	1683	4886
1	1680	4887
1	1679	4888
1	1672	4889
1	1657	4890
1	1644	4891
1	1633	4892
1	1621	4893
1	1610	4894
1	1605	4895
1	1592	4896
1	1583	4897
1	1577	4898
1	1571	4899
1	1566	4900
1	1568	4901
1	1569	4902
1	1571	4903
1	1575	4904
1	1576	4905
1	1576	4906
1	1582	4907
1	1596	4908
1	1610	4909
1	1626	4910
1	1634	4911
1	1648	4912
1	1658	4913
1	1664	4914
1	1669	4915
1	1683	4916
1	1688	4917
1	1692	4918
1	1695	4919
1	1698	4920
1	1697	4921
1	1690	4922
1	1686	4923
1	1675	4924
1	1660	4925
1	1639	4926
1	1625	4927
1	1612	4928
1	1605	4929
1	1594	4930
1	1594	4931
1	1592	4932
1	1589	4933
1	1598	4934
1	1593	4935
1	1590	4936
1	1586	4937
1	1585	4938
1	1584	4939
1	1581	4940
1	1574	4941
1	1566	4942
1	1557	4943
1	1555	4944
1	1559	4945
1	1566	4946
1	1570	4947
1	1564	4948
1	1561	4949
1	1557	4950
1	1561	4951
1	1566	4952
1	1569	4953
1	1581	4954
1	1600	4955
1	1619	4956
1	1644	4957
1	1670	4958
1	1695	4959
1	1711	4960
1	1718	4961
1	1712	4962
1	1698	4963
1	1674	4964
1	1652	4965
1	1634	4966
1	1625	4967
1	1613	4968
1	1600	4969
1	1592	4970
1	1579	4971
1	1576	4972
1	1575	4973
1	1576	4974
1	1577	4975
1	1581	4976
1	1580	4977
1	1580	4978
1	1582	4979
1	1588	4980
1	1595	4981
1	1605	4982
1	1613	4983
1	1615	4984
1	1611	4985
1	1608	4986
1	1607	4987
1	1606	4988
1	1607	4989
1	1615	4990
1	1633	4991
1	1647	4992
1	1656	4993
1	1656	4994
1	1655	4995
1	1652	4996
1	1647	4997
1	1644	4998
1	1636	4999
1	1634	5000
1	1616	5001
1	1611	5002
1	1605	5003
1	1594	5004
1	1589	5005
1	1589	5006
1	1584	5007
1	1579	5008
1	1571	5009
1	1570	5010
1	1579	5011
1	1590	5012
1	1605	5013
1	1618	5014
1	1633	5015
1	1634	5016
1	1647	5017
1	1654	5018
1	1657	5019
1	1660	5020
1	1665	5021
1	1662	5022
1	1660	5023
1	1657	5024
1	1647	5025
1	1634	5026
1	1628	5027
1	1620	5028
1	1617	5029
1	1620	5030
1	1629	5031
1	1639	5032
1	1654	5033
1	1661	5034
1	1675	5035
1	1682	5036
1	1687	5037
1	1685	5038
1	1681	5039
1	1677	5040
1	1677	5041
1	1674	5042
1	1671	5043
1	1662	5044
1	1651	5045
1	1630	5046
1	1616	5047
1	1607	5048
1	1600	5049
1	1598	5050
1	1607	5051
1	1610	5052
1	1629	5053
1	1655	5054
1	1682	5055
1	1703	5056
1	1715	5057
1	1720	5058
1	1727	5059
1	1736	5060
1	1733	5061
1	1729	5062
1	1723	5063
1	1713	5064
1	1712	5065
1	1719	5066
1	1720	5067
1	1717	5068
1	1712	5069
1	1693	5070
1	1679	5071
1	1672	5072
1	1674	5073
1	1679	5074
1	1682	5075
1	1673	5076
1	1670	5077
1	1661	5078
1	1652	5079
1	1643	5080
1	1638	5081
1	1631	5082
1	1615	5083
1	1599	5084
1	1589	5085
1	1587	5086
1	1586	5087
1	1592	5088
1	1602	5089
1	1608	5090
1	1612	5091
1	1612	5092
1	1607	5093
1	1603	5094
1	1598	5095
1	1602	5096
1	1594	5097
1	1587	5098
1	1587	5099
1	1590	5100
1	1585	5101
1	1583	5102
1	1582	5103
1	1589	5104
1	1598	5105
1	1602	5106
1	1607	5107
1	1607	5108
1	1607	5109
1	1607	5110
1	1607	5111
1	1607	5112
1	1612	5113
1	1618	5114
1	1619	5115
1	1618	5116
1	1611	5117
1	1607	5118
1	1593	5119
1	1581	5120
1	1572	5121
1	1562	5122
1	1553	5123
1	1547	5124
1	1542	5125
1	1546	5126
1	1542	5127
1	1555	5128
1	1567	5129
1	1581	5130
1	1597	5131
1	1607	5132
1	1607	5133
1	1607	5134
1	1613	5135
1	1624	5136
1	1629	5137
1	1629	5138
1	1626	5139
1	1616	5140
1	1598	5141
1	1580	5142
1	1550	5143
1	1529	5144
1	1513	5145
1	1500	5146
1	1488	5147
1	1481	5148
1	1489	5149
1	1503	5150
1	1521	5151
1	1553	5152
1	1592	5153
1	1636	5154
1	1688	5155
1	1744	5156
1	1792	5157
1	1844	5158
1	1891	5159
1	1932	5160
1	1970	5161
1	2000	5162
1	2026	5163
1	2053	5164
1	2079	5165
1	2102	5166
1	2127	5167
1	2156	5168
1	2187	5169
1	2233	5170
1	2289	5171
1	2349	5172
1	2408	5173
1	2459	5174
1	2493	5175
1	2503	5176
1	2496	5177
1	2482	5178
1	2445	5179
1	2392	5180
1	2314	5181
1	2236	5182
1	2144	5183
1	2050	5184
1	1959	5185
1	1873	5186
1	1775	5187
1	1674	5188
1	1582	5189
1	1499	5190
1	1431	5191
1	1372	5192
1	1325	5193
1	1296	5194
1	1284	5195
1	1275	5196
1	1278	5197
1	1292	5198
1	1314	5199
1	1340	5200
1	1371	5201
1	1398	5202
1	1414	5203
1	1415	5204
1	1413	5205
1	1423	5206
1	1436	5207
1	1450	5208
1	1469	5209
1	1484	5210
1	1488	5211
1	1499	5212
1	1508	5213
1	1518	5214
1	1529	5215
1	1537	5216
1	1544	5217
1	1554	5218
1	1564	5219
1	1579	5220
1	1594	5221
1	1611	5222
1	1633	5223
1	1647	5224
1	1651	5225
1	1641	5226
1	1629	5227
1	1618	5228
1	1610	5229
1	1613	5230
1	1601	5231
1	1594	5232
1	1585	5233
1	1586	5234
1	1587	5235
1	1589	5236
1	1592	5237
1	1593	5238
1	1593	5239
1	1593	5240
1	1582	5241
1	1572	5242
1	1555	5243
1	1536	5244
1	1515	5245
1	1503	5246
1	1493	5247
1	1494	5248
1	1502	5249
1	1504	5250
1	1518	5251
1	1539	5252
1	1566	5253
1	1596	5254
1	1623	5255
1	1636	5256
1	1652	5257
1	1663	5258
1	1669	5259
1	1674	5260
1	1680	5261
1	1676	5262
1	1670	5263
1	1661	5264
1	1658	5265
1	1650	5266
1	1644	5267
1	1634	5268
1	1626	5269
1	1618	5270
1	1607	5271
1	1603	5272
1	1603	5273
1	1602	5274
1	1606	5275
1	1616	5276
1	1628	5277
1	1634	5278
1	1636	5279
1	1638	5280
1	1647	5281
1	1656	5282
1	1657	5283
1	1652	5284
1	1641	5285
1	1634	5286
1	1625	5287
1	1619	5288
1	1613	5289
1	1613	5290
1	1626	5291
1	1635	5292
1	1649	5293
1	1661	5294
1	1672	5295
1	1671	5296
1	1667	5297
1	1659	5298
1	1651	5299
1	1643	5300
1	1629	5301
1	1617	5302
1	1605	5303
1	1589	5304
1	1574	5305
1	1559	5306
1	1549	5307
1	1544	5308
1	1552	5309
1	1561	5310
1	1580	5311
1	1602	5312
1	1621	5313
1	1638	5314
1	1651	5315
1	1652	5316
1	1651	5317
1	1647	5318
1	1642	5319
1	1637	5320
1	1634	5321
1	1629	5322
1	1622	5323
1	1619	5324
1	1611	5325
1	1600	5326
1	1597	5327
1	1602	5328
1	1607	5329
1	1615	5330
1	1620	5331
1	1622	5332
1	1618	5333
1	1618	5334
1	1613	5335
1	1607	5336
1	1620	5337
1	1633	5338
1	1647	5339
1	1651	5340
1	1647	5341
1	1639	5342
1	1634	5343
1	1626	5344
1	1621	5345
1	1610	5346
1	1607	5347
1	1603	5348
1	1602	5349
1	1608	5350
1	1634	5351
1	1658	5352
1	1685	5353
1	1710	5354
1	1737	5355
1	1760	5356
1	1782	5357
1	1801	5358
1	1817	5359
1	1821	5360
1	1814	5361
1	1794	5362
1	1775	5363
1	1759	5364
1	1744	5365
1	1738	5366
1	1726	5367
1	1717	5368
1	1708	5369
1	1698	5370
1	1686	5371
1	1671	5372
1	1657	5373
1	1651	5374
1	1656	5375
1	1660	5376
1	1670	5377
1	1686	5378
1	1706	5379
1	1724	5380
1	1748	5381
1	1763	5382
1	1769	5383
1	1774	5384
1	1764	5385
1	1761	5386
1	1755	5387
1	1751	5388
1	1750	5389
1	1753	5390
1	1760	5391
1	1765	5392
1	1773	5393
1	1778	5394
1	1785	5395
1	1796	5396
1	1803	5397
1	1809	5398
1	1813	5399
1	1813	5400
1	1799	5401
1	1786	5402
1	1765	5403
1	1749	5404
1	1736	5405
1	1715	5406
1	1703	5407
1	1694	5408
1	1692	5409
1	1694	5410
1	1706	5411
1	1705	5412
1	1704	5413
1	1708	5414
1	1712	5415
1	1718	5416
1	1729	5417
1	1738	5418
1	1738	5419
1	1737	5420
1	1724	5421
1	1722	5422
1	1721	5423
1	1728	5424
1	1738	5425
1	1760	5426
1	1764	5427
1	1778	5428
1	1779	5429
1	1783	5430
1	1785	5431
1	1782	5432
1	1775	5433
1	1775	5434
1	1777	5435
1	1778	5436
1	1778	5437
1	1772	5438
1	1762	5439
1	1754	5440
1	1742	5441
1	1733	5442
1	1715	5443
1	1708	5444
1	1699	5445
1	1692	5446
1	1686	5447
1	1674	5448
1	1661	5449
1	1652	5450
1	1637	5451
1	1634	5452
1	1632	5453
1	1628	5454
1	1622	5455
1	1631	5456
1	1636	5457
1	1639	5458
1	1637	5459
1	1634	5460
1	1629	5461
1	1616	5462
1	1608	5463
1	1607	5464
1	1602	5465
1	1590	5466
1	1580	5467
1	1561	5468
1	1545	5469
1	1532	5470
1	1529	5471
1	1520	5472
1	1513	5473
1	1516	5474
1	1524	5475
1	1537	5476
1	1555	5477
1	1569	5478
1	1577	5479
1	1581	5480
1	1579	5481
1	1578	5482
1	1569	5483
1	1553	5484
1	1536	5485
1	1531	5486
1	1524	5487
1	1510	5488
1	1495	5489
1	1481	5490
1	1469	5491
1	1462	5492
1	1460	5493
1	1461	5494
1	1466	5495
1	1467	5496
1	1476	5497
1	1487	5498
1	1502	5499
1	1513	5500
1	1530	5501
1	1542	5502
1	1546	5503
1	1544	5504
1	1537	5505
1	1529	5506
1	1510	5507
1	1488	5508
1	1467	5509
1	1449	5510
1	1429	5511
1	1422	5512
1	1416	5513
1	1413	5514
1	1422	5515
1	1433	5516
1	1445	5517
1	1463	5518
1	1481	5519
1	1503	5520
1	1524	5521
1	1535	5522
1	1540	5523
1	1539	5524
1	1533	5525
1	1521	5526
1	1511	5527
1	1503	5528
1	1498	5529
1	1485	5530
1	1476	5531
1	1475	5532
1	1469	5533
1	1461	5534
1	1457	5535
1	1454	5536
1	1456	5537
1	1462	5538
1	1461	5539
1	1459	5540
1	1456	5541
1	1461	5542
1	1465	5543
1	1469	5544
1	1472	5545
1	1481	5546
1	1481	5547
1	1480	5548
1	1476	5549
1	1466	5550
1	1450	5551
1	1439	5552
1	1429	5553
1	1424	5554
1	1430	5555
1	1434	5556
1	1446	5557
1	1467	5558
1	1490	5559
1	1504	5560
1	1516	5561
1	1517	5562
1	1511	5563
1	1504	5564
1	1494	5565
1	1476	5566
1	1459	5567
1	1443	5568
1	1438	5569
1	1438	5570
1	1442	5571
1	1460	5572
1	1488	5573
1	1512	5574
1	1533	5575
1	1553	5576
1	1563	5577
1	1569	5578
1	1563	5579
1	1553	5580
1	1538	5581
1	1526	5582
1	1511	5583
1	1494	5584
1	1474	5585
1	1455	5586
1	1445	5587
1	1437	5588
1	1437	5589
1	1441	5590
1	1452	5591
1	1471	5592
1	1490	5593
1	1512	5594
1	1536	5595
1	1562	5596
1	1583	5597
1	1602	5598
1	1611	5599
1	1622	5600
1	1618	5601
1	1609	5602
1	1594	5603
1	1581	5604
1	1569	5605
1	1563	5606
1	1556	5607
1	1557	5608
1	1559	5609
1	1566	5610
1	1574	5611
1	1584	5612
1	1596	5613
1	1607	5614
1	1612	5615
1	1608	5616
1	1604	5617
1	1592	5618
1	1580	5619
1	1567	5620
1	1557	5621
1	1544	5622
1	1530	5623
1	1520	5624
1	1507	5625
1	1497	5626
1	1495	5627
1	1490	5628
1	1486	5629
1	1481	5630
1	1485	5631
1	1489	5632
1	1499	5633
1	1508	5634
1	1523	5635
1	1544	5636
1	1564	5637
1	1581	5638
1	1598	5639
1	1621	5640
1	1638	5641
1	1647	5642
1	1647	5643
1	1639	5644
1	1620	5645
1	1582	5646
1	1546	5647
1	1512	5648
1	1489	5649
1	1474	5650
1	1471	5651
1	1462	5652
1	1461	5653
1	1466	5654
1	1476	5655
1	1494	5656
1	1517	5657
1	1530	5658
1	1538	5659
1	1647	5680
1	1654	5681
1	1647	5682
1	1638	5683
1	1629	5684
1	1611	5685
1	1592	5686
1	1572	5687
1	1561	5688
1	1555	5689
1	1546	5690
1	1535	5691
1	1530	5692
1	1530	5693
1	1533	5694
1	1539	5695
1	1548	5696
1	1559	5697
1	1575	5698
1	1587	5699
1	1594	5700
1	1594	5701
1	1583	5702
1	1575	5703
1	1561	5704
1	1547	5705
1	1527	5706
1	1517	5707
1	1507	5708
1	1501	5709
1	1499	5710
1	1508	5711
1	1517	5712
1	1528	5713
1	1538	5714
1	1553	5715
1	1571	5716
1	1584	5717
1	1597	5718
1	1613	5719
1	1538	5660
1	1525	5661
1	1517	5662
1	1507	5663
1	1502	5664
1	1494	5665
1	1492	5666
1	1490	5667
1	1489	5668
1	1490	5669
1	1498	5670
1	1507	5671
1	1526	5672
1	1539	5673
1	1562	5674
1	1590	5675
1	1607	5676
1	1624	5677
1	1635	5678
1	1645	5679
1	1624	5720
1	1616	5721
1	1610	5722
1	1603	5723
1	1593	5724
1	1579	5725
1	1568	5726
1	1556	5727
1	1543	5728
1	1536	5729
1	1516	5730
1	1505	5731
1	1494	5732
1	1477	5733
1	1469	5734
1	1463	5735
1	1465	5736
1	1476	5737
1	1490	5738
1	1515	5739
1	1530	5740
1	1553	5741
1	1568	5742
1	1577	5743
1	1576	5744
1	1579	5745
1	1578	5746
1	1577	5747
1	1577	5748
1	1575	5749
1	1581	5750
1	1581	5751
1	1589	5752
1	1607	5753
1	1629	5754
1	1649	5755
1	1668	5756
1	1671	5757
1	1671	5758
1	1663	5759
1	1645	5760
1	1618	5761
1	1593	5762
1	1567	5763
1	1543	5764
1	1523	5765
1	1502	5766
1	1490	5767
1	1482	5768
1	1477	5769
1	1484	5770
1	1502	5771
1	1517	5772
1	1535	5773
1	1554	5774
1	1575	5775
1	1587	5776
1	1594	5777
1	1602	5778
1	1609	5779
1	1616	5780
1	1611	5781
1	1607	5782
1	1597	5783
1	1586	5784
1	1579	5785
1	1580	5786
1	1572	5787
1	1571	5788
1	1569	5789
1	1576	5790
1	1581	5791
1	1585	5792
1	1584	5793
1	1589	5794
1	1594	5795
1	1597	5796
1	1607	5797
1	1613	5798
1	1621	5799
1	1629	5800
1	1644	5801
1	1649	5802
1	1645	5803
1	1634	5804
1	1613	5805
1	1602	5806
1	1593	5807
1	1585	5808
1	1579	5809
1	1568	5810
1	1542	5811
1	1526	5812
1	1521	5813
1	1517	5814
1	1515	5815
1	1529	5816
1	1542	5817
1	1559	5818
1	1574	5819
1	1592	5820
1	1611	5821
1	1634	5822
1	1643	5823
1	1646	5824
1	1636	5825
1	1623	5826
1	1607	5827
1	1602	5828
1	1604	5829
1	1608	5830
1	1616	5831
1	1634	5832
1	1647	5833
1	1660	5834
1	1674	5835
1	1681	5836
1	1683	5837
1	1680	5838
1	1675	5839
1	1667	5840
1	1659	5841
1	1651	5842
1	1649	5843
1	1646	5844
1	1636	5845
1	1638	5846
1	1628	5847
1	1609	5848
1	1589	5849
1	1569	5850
1	1561	5851
1	1561	5852
1	1568	5853
1	1581	5854
1	1605	5855
1	1626	5856
1	1650	5857
1	1664	5858
1	1678	5859
1	1686	5860
1	1697	5861
1	1701	5862
1	1699	5863
1	1688	5864
1	1677	5865
1	1668	5866
1	1661	5867
1	1660	5868
1	1657	5869
1	1648	5870
1	1634	5871
1	1629	5872
1	1625	5873
1	1629	5874
1	1634	5875
1	1650	5876
1	1664	5877
1	1686	5878
1	1703	5879
1	1639	5900
1	1598	5901
1	1557	5902
1	1529	5903
1	1503	5904
1	1490	5905
1	1490	5906
1	1494	5907
1	1506	5908
1	1527	5909
1	1546	5910
1	1564	5911
1	1582	5912
1	1603	5913
1	1622	5914
1	1641	5915
1	1651	5916
1	1660	5917
1	1670	5918
1	1683	5919
1	1720	5880
1	1733	5881
1	1739	5882
1	1741	5883
1	1739	5884
1	1742	5885
1	1738	5886
1	1731	5887
1	1721	5888
1	1706	5889
1	1688	5890
1	1686	5891
1	1682	5892
1	1686	5893
1	1697	5894
1	1707	5895
1	1711	5896
1	1705	5897
1	1691	5898
1	1670	5899
1	1693	5920
1	1706	5921
1	1708	5922
1	1703	5923
1	1693	5924
1	1676	5925
1	1646	5926
1	1630	5927
1	1612	5928
1	1602	5929
1	1590	5930
1	1581	5931
1	1568	5932
1	1550	5933
1	1533	5934
1	1526	5935
1	1534	5936
1	1551	5937
1	1566	5938
1	1584	5939
1	1600	5960
1	1589	5961
1	1580	5962
1	1568	5963
1	1563	5964
1	1559	5965
1	1563	5966
1	1561	5967
1	1569	5968
1	1585	5969
1	1609	5970
1	1642	5971
1	1675	5972
1	1712	5973
1	1755	5974
1	1809	5975
1	1856	5976
1	1908	5977
1	1961	5978
1	2010	5979
1	1607	5940
1	1625	5941
1	1634	5942
1	1638	5943
1	1634	5944
1	1626	5945
1	1609	5946
1	1596	5947
1	1587	5948
1	1584	5949
1	1589	5950
1	1598	5951
1	1600	5952
1	1600	5953
1	1606	5954
1	1607	5955
1	1609	5956
1	1608	5957
1	1607	5958
1	1605	5959
1	2054	5980
1	2109	5981
1	2163	5982
1	2215	5983
1	2278	5984
1	2341	5985
1	2395	5986
1	2440	5987
1	2480	5988
1	2506	5989
1	2524	5990
1	2535	5991
1	2530	5992
1	2520	5993
1	2503	5994
1	2467	5995
1	2409	5996
1	2341	5997
1	2276	5998
1	2210	5999
1	2147	6000
1	2087	6001
1	2024	6002
1	1953	6003
1	1873	6004
1	1791	6005
1	1700	6006
1	1620	6007
1	1545	6008
1	1474	6009
1	1407	6010
1	1350	6011
1	1313	6012
1	1290	6013
1	1284	6014
1	1293	6015
1	1312	6016
1	1332	6017
1	1358	6018
1	1384	6019
1	1585	6040
1	1607	6041
1	1629	6042
1	1638	6043
1	1652	6044
1	1672	6045
1	1681	6046
1	1681	6047
1	1676	6048
1	1671	6049
1	1670	6050
1	1659	6051
1	1647	6052
1	1638	6053
1	1634	6054
1	1635	6055
1	1644	6056
1	1647	6057
1	1654	6058
1	1654	6059
1	1413	6020
1	1429	6021
1	1447	6022
1	1468	6023
1	1485	6024
1	1495	6025
1	1510	6026
1	1511	6027
1	1517	6028
1	1514	6029
1	1508	6030
1	1512	6031
1	1519	6032
1	1529	6033
1	1530	6034
1	1530	6035
1	1535	6036
1	1540	6037
1	1551	6038
1	1567	6039
1	1647	6060
1	1637	6061
1	1638	6062
1	1646	6063
1	1647	6064
1	1647	6065
1	1638	6066
1	1632	6067
1	1619	6068
1	1607	6069
1	1607	6070
1	1616	6071
1	1625	6072
1	1634	6073
1	1648	6074
1	1660	6075
1	1667	6076
1	1670	6077
1	1670	6078
1	1669	6079
1	1670	6080
1	1667	6081
1	1665	6082
1	1668	6083
1	1675	6084
1	1685	6085
1	1692	6086
1	1695	6087
1	1703	6088
1	1707	6089
1	1710	6090
1	1710	6091
1	1704	6092
1	1701	6093
1	1699	6094
1	1699	6095
1	1695	6096
1	1690	6097
1	1683	6098
1	1672	6099
1	1661	6100
1	1660	6101
1	1647	6102
1	1633	6103
1	1622	6104
1	1618	6105
1	1620	6106
1	1620	6107
1	1623	6108
1	1626	6109
1	1625	6110
1	1611	6111
1	1606	6112
1	1603	6113
1	1611	6114
1	1634	6115
1	1660	6116
1	1684	6117
1	1703	6118
1	1712	6119
1	1764	6140
1	1749	6141
1	1729	6142
1	1708	6143
1	1686	6144
1	1664	6145
1	1657	6146
1	1647	6147
1	1639	6148
1	1634	6149
1	1638	6150
1	1654	6151
1	1670	6152
1	1689	6153
1	1708	6154
1	1726	6155
1	1738	6156
1	1753	6157
1	1764	6158
1	1776	6159
1	1715	6120
1	1712	6121
1	1706	6122
1	1698	6123
1	1692	6124
1	1685	6125
1	1677	6126
1	1672	6127
1	1664	6128
1	1660	6129
1	1659	6130
1	1658	6131
1	1662	6132
1	1672	6133
1	1692	6134
1	1718	6135
1	1738	6136
1	1750	6137
1	1756	6138
1	1762	6139
1	1789	6160
1	1812	6161
1	1818	6162
1	1814	6163
1	1791	6164
1	1774	6165
1	1752	6166
1	1731	6167
1	1709	6168
1	1688	6169
1	1681	6170
1	1670	6171
1	1672	6172
1	1677	6173
1	1681	6174
1	1686	6175
1	1698	6176
1	1706	6177
1	1716	6178
1	1728	6179
1	1738	6180
1	1743	6181
1	1742	6182
1	1738	6183
1	1741	6184
1	1751	6185
1	1752	6186
1	1764	6187
1	1777	6188
1	1790	6189
1	1795	6190
1	1817	6191
1	1827	6192
1	1841	6193
1	1855	6194
1	1869	6195
1	1886	6196
1	1901	6197
1	1918	6198
1	1931	6199
1	1929	6200
1	1906	6201
1	1875	6202
1	1847	6203
1	1819	6204
1	1792	6205
1	1783	6206
1	1770	6207
1	1763	6208
1	1755	6209
1	1759	6210
1	1763	6211
1	1764	6212
1	1769	6213
1	1773	6214
1	1782	6215
1	1790	6216
1	1799	6217
1	1813	6218
1	1819	6219
1	1826	6220
1	1841	6221
1	1843	6222
1	1839	6223
1	1835	6224
1	1829	6225
1	1817	6226
1	1809	6227
1	1801	6228
1	1803	6229
1	1812	6230
1	1817	6231
1	1821	6232
1	1825	6233
1	1835	6234
1	1842	6235
1	1847	6236
1	1853	6237
1	1850	6238
1	1844	6239
1	1847	6240
1	1839	6241
1	1830	6242
1	1819	6243
1	1817	6244
1	1801	6245
1	1787	6246
1	1776	6247
1	1768	6248
1	1764	6249
1	1769	6250
1	1790	6251
1	1814	6252
1	1832	6253
1	1845	6254
1	1856	6255
1	1868	6256
1	1870	6257
1	1872	6258
1	1871	6259
1	1863	6260
1	1843	6261
1	1820	6262
1	1793	6263
1	1769	6264
1	1751	6265
1	1737	6266
1	1718	6267
1	1704	6268
1	1691	6269
1	1686	6270
1	1681	6271
1	1675	6272
1	1665	6273
1	1662	6274
1	1660	6275
1	1656	6276
1	1658	6277
1	1660	6278
1	1661	6279
1	1665	6280
1	1675	6281
1	1674	6282
1	1677	6283
1	1683	6284
1	1683	6285
1	1677	6286
1	1664	6287
1	1660	6288
1	1650	6289
1	1646	6290
1	1638	6291
1	1634	6292
1	1629	6293
1	1622	6294
1	1611	6295
1	1607	6296
1	1602	6297
1	1605	6298
1	1607	6299
1	1613	6300
1	1616	6301
1	1611	6302
1	1608	6303
1	1602	6304
1	1590	6305
1	1575	6306
1	1561	6307
1	1549	6308
1	1539	6309
1	1537	6310
1	1541	6311
1	1544	6312
1	1555	6313
1	1566	6314
1	1574	6315
1	1581	6316
1	1589	6317
1	1595	6318
1	1599	6319
1	1603	6320
1	1593	6321
1	1581	6322
1	1577	6323
1	1568	6324
1	1562	6325
1	1564	6326
1	1553	6327
1	1548	6328
1	1541	6329
1	1530	6330
1	1524	6331
1	1519	6332
1	1519	6333
1	1526	6334
1	1530	6335
1	1546	6336
1	1561	6337
1	1573	6338
1	1582	6339
1	1587	6340
1	1592	6341
1	1585	6342
1	1573	6343
1	1559	6344
1	1551	6345
1	1538	6346
1	1526	6347
1	1512	6348
1	1503	6349
1	1499	6350
1	1494	6351
1	1503	6352
1	1519	6353
1	1533	6354
1	1550	6355
1	1567	6356
1	1577	6357
1	1592	6358
1	1613	6359
1	1634	6360
1	1647	6361
1	1652	6362
1	1651	6363
1	1636	6364
1	1620	6365
1	1595	6366
1	1577	6367
1	1560	6368
1	1552	6369
1	1549	6370
1	1550	6371
1	1540	6372
1	1532	6373
1	1530	6374
1	1531	6375
1	1533	6376
1	1529	6377
1	1517	6378
1	1517	6379
1	1525	6380
1	1533	6381
1	1544	6382
1	1553	6383
1	1554	6384
1	1555	6385
1	1560	6386
1	1562	6387
1	1567	6388
1	1571	6389
1	1571	6390
1	1572	6391
1	1576	6392
1	1581	6393
1	1584	6394
1	1586	6395
1	1581	6396
1	1581	6397
1	1585	6398
1	1596	6399
1	1607	6400
1	1613	6401
1	1607	6402
1	1600	6403
1	1589	6404
1	1580	6405
1	1563	6406
1	1544	6407
1	1528	6408
1	1521	6409
1	1523	6410
1	1527	6411
1	1541	6412
1	1555	6413
1	1568	6414
1	1580	6415
1	1581	6416
1	1579	6417
1	1582	6418
1	1594	6419
1	1605	6420
1	1610	6421
1	1610	6422
1	1607	6423
1	1595	6424
1	1587	6425
1	1577	6426
1	1579	6427
1	1581	6428
1	1593	6429
1	1596	6430
1	1605	6431
1	1615	6432
1	1622	6433
1	1634	6434
1	1647	6435
1	1649	6436
1	1651	6437
1	1660	6438
1	1665	6439
1	1669	6440
1	1659	6441
1	1648	6442
1	1638	6443
1	1625	6444
1	1608	6445
1	1596	6446
1	1581	6447
1	1574	6448
1	1574	6449
1	1581	6450
1	1590	6451
1	1596	6452
1	1602	6453
1	1608	6454
1	1616	6455
1	1607	6456
1	1600	6457
1	1589	6458
1	1580	6459
1	1572	6460
1	1575	6461
1	1581	6462
1	1590	6463
1	1595	6464
1	1598	6465
1	1599	6466
1	1600	6467
1	1598	6468
1	1597	6469
1	1596	6470
1	1592	6471
1	1589	6472
1	1584	6473
1	1581	6474
1	1577	6475
1	1589	6476
1	1599	6477
1	1608	6478
1	1620	6479
1	1629	6480
1	1636	6481
1	1642	6482
1	1645	6483
1	1635	6484
1	1628	6485
1	1615	6486
1	1612	6487
1	1603	6488
1	1589	6489
1	1576	6490
1	1569	6491
1	1564	6492
1	1562	6493
1	1559	6494
1	1560	6495
1	1566	6496
1	1570	6497
1	1574	6498
1	1577	6499
1	1579	6500
1	1577	6501
1	1581	6502
1	1585	6503
1	1589	6504
1	1587	6505
1	1593	6506
1	1596	6507
1	1594	6508
1	1590	6509
1	1581	6510
1	1570	6511
1	1560	6512
1	1564	6513
1	1579	6514
1	1593	6515
1	1607	6516
1	1617	6517
1	1629	6518
1	1638	6519
1	1646	6520
1	1659	6521
1	1660	6522
1	1660	6523
1	1657	6524
1	1646	6525
1	1634	6526
1	1620	6527
1	1619	6528
1	1611	6529
1	1609	6530
1	1607	6531
1	1607	6532
1	1607	6533
1	1607	6534
1	1605	6535
1	1597	6536
1	1595	6537
1	1593	6538
1	1590	6539
1	1598	6540
1	1606	6541
1	1613	6542
1	1620	6543
1	1621	6544
1	1618	6545
1	1603	6546
1	1592	6547
1	1581	6548
1	1570	6549
1	1566	6550
1	1567	6551
1	1571	6552
1	1574	6553
1	1577	6554
1	1581	6555
1	1585	6556
1	1592	6557
1	1597	6558
1	1605	6559
1	1607	6560
1	1602	6561
1	1597	6562
1	1592	6563
1	1586	6564
1	1584	6565
1	1589	6566
1	1585	6567
1	1584	6568
1	1584	6569
1	1586	6570
1	1589	6571
1	1597	6572
1	1606	6573
1	1611	6574
1	1619	6575
1	1618	6576
1	1621	6577
1	1628	6578
1	1632	6579
1	1632	6580
1	1634	6581
1	1634	6582
1	1633	6583
1	1626	6584
1	1613	6585
1	1608	6586
1	1607	6587
1	1597	6588
1	1583	6589
1	1576	6590
1	1570	6591
1	1564	6592
1	1555	6593
1	1549	6594
1	1555	6595
1	1572	6596
1	1594	6597
1	1620	6598
1	1644	6599
1	1661	6600
1	1677	6601
1	1681	6602
1	1679	6603
1	1665	6604
1	1652	6605
1	1625	6606
1	1598	6607
1	1569	6608
1	1555	6609
1	1547	6610
1	1548	6611
1	1547	6612
1	1553	6613
1	1557	6614
1	1571	6615
1	1584	6616
1	1597	6617
1	1611	6618
1	1633	6619
1	1611	6640
1	1607	6641
1	1598	6642
1	1593	6643
1	1590	6644
1	1597	6645
1	1597	6646
1	1589	6647
1	1582	6648
1	1581	6649
1	1581	6650
1	1575	6651
1	1575	6652
1	1576	6653
1	1579	6654
1	1580	6655
1	1589	6656
1	1597	6657
1	1605	6658
1	1607	6659
1	1655	6620
1	1662	6621
1	1670	6622
1	1670	6623
1	1661	6624
1	1649	6625
1	1638	6626
1	1612	6627
1	1598	6628
1	1582	6629
1	1576	6630
1	1571	6631
1	1573	6632
1	1580	6633
1	1584	6634
1	1594	6635
1	1605	6636
1	1610	6637
1	1616	6638
1	1616	6639
1	1606	6660
1	1606	6661
1	1597	6662
1	1589	6663
1	1577	6664
1	1562	6665
1	1553	6666
1	1555	6667
1	1557	6668
1	1562	6669
1	1566	6670
1	1579	6671
1	1590	6672
1	1607	6673
1	1628	6674
1	1647	6675
1	1668	6676
1	1686	6677
1	1698	6678
1	1702	6679
1	1697	6680
1	1675	6681
1	1655	6682
1	1634	6683
1	1616	6684
1	1600	6685
1	1589	6686
1	1578	6687
1	1563	6688
1	1558	6689
1	1559	6690
1	1566	6691
1	1581	6692
1	1600	6693
1	1616	6694
1	1631	6695
1	1630	6696
1	1626	6697
1	1630	6698
1	1631	6699
1	1629	6700
1	1629	6701
1	1625	6702
1	1625	6703
1	1629	6704
1	1636	6705
1	1639	6706
1	1643	6707
1	1649	6708
1	1660	6709
1	1671	6710
1	1674	6711
1	1682	6712
1	1687	6713
1	1690	6714
1	1694	6715
1	1702	6716
1	1704	6717
1	1701	6718
1	1688	6719
1	1677	6720
1	1660	6721
1	1639	6722
1	1619	6723
1	1593	6724
1	1571	6725
1	1546	6726
1	1531	6727
1	1526	6728
1	1522	6729
1	1528	6730
1	1549	6731
1	1583	6732
1	1616	6733
1	1647	6734
1	1673	6735
1	1686	6736
1	1704	6737
1	1724	6738
1	1736	6739
1	1737	6740
1	1721	6741
1	1706	6742
1	1688	6743
1	1674	6744
1	1660	6745
1	1647	6746
1	1634	6747
1	1621	6748
1	1619	6749
1	1621	6750
1	1632	6751
1	1641	6752
1	1650	6753
1	1658	6754
1	1665	6755
1	1670	6756
1	1674	6757
1	1675	6758
1	1677	6759
1	1686	6760
1	1701	6761
1	1712	6762
1	1718	6763
1	1717	6764
1	1713	6765
1	1705	6766
1	1689	6767
1	1674	6768
1	1660	6769
1	1649	6770
1	1634	6771
1	1632	6772
1	1629	6773
1	1634	6774
1	1638	6775
1	1652	6776
1	1659	6777
1	1660	6778
1	1659	6779
1	1648	6780
1	1634	6781
1	1619	6782
1	1606	6783
1	1593	6784
1	1576	6785
1	1562	6786
1	1555	6787
1	1554	6788
1	1551	6789
1	1553	6790
1	1549	6791
1	1555	6792
1	1562	6793
1	1571	6794
1	1581	6795
1	1594	6796
1	1608	6797
1	1621	6798
1	1633	6799
1	1634	6800
1	1630	6801
1	1625	6802
1	1620	6803
1	1613	6804
1	1605	6805
1	1600	6806
1	1584	6807
1	1570	6808
1	1555	6809
1	1546	6810
1	1540	6811
1	1541	6812
1	1543	6813
1	1554	6814
1	1574	6815
1	1594	6816
1	1623	6817
1	1647	6818
1	1660	6819
1	1670	6820
1	1683	6821
1	1680	6822
1	1669	6823
1	1652	6824
1	1623	6825
1	1585	6826
1	1566	6827
1	1539	6828
1	1515	6829
1	1494	6830
1	1478	6831
1	1464	6832
1	1461	6833
1	1463	6834
1	1469	6835
1	1485	6836
1	1502	6837
1	1518	6838
1	1541	6839
1	1569	6840
1	1593	6841
1	1615	6842
1	1634	6843
1	1646	6844
1	1660	6845
1	1674	6846
1	1699	6847
1	1730	6848
1	1762	6849
1	1799	6850
1	1848	6851
1	1895	6852
1	1948	6853
1	1999	6854
1	2057	6855
1	2117	6856
1	2174	6857
1	2238	6858
1	2305	6859
1	2367	6860
1	2417	6861
1	2464	6862
1	2497	6863
1	2520	6864
1	2532	6865
1	2532	6866
1	2515	6867
1	2488	6868
1	2443	6869
1	2387	6870
1	2314	6871
1	2237	6872
1	2156	6873
1	2076	6874
1	1998	6875
1	1908	6876
1	1820	6877
1	1734	6878
1	1652	6879
1	1581	6880
1	1524	6881
1	1465	6882
1	1411	6883
1	1356	6884
1	1315	6885
1	1279	6886
1	1264	6887
1	1245	6888
1	1235	6889
1	1233	6890
1	1250	6891
1	1278	6892
1	1314	6893
1	1350	6894
1	1394	6895
1	1437	6896
1	1468	6897
1	1500	6898
1	1526	6899
1	1544	6900
1	1555	6901
1	1556	6902
1	1556	6903
1	1553	6904
1	1542	6905
1	1526	6906
1	1519	6907
1	1524	6908
1	1528	6909
1	1535	6910
1	1553	6911
1	1559	6912
1	1571	6913
1	1582	6914
1	1598	6915
1	1611	6916
1	1622	6917
1	1631	6918
1	1634	6919
1	1629	6920
1	1612	6921
1	1607	6922
1	1603	6923
1	1599	6924
1	1600	6925
1	1607	6926
1	1600	6927
1	1602	6928
1	1598	6929
1	1592	6930
1	1574	6931
1	1568	6932
1	1555	6933
1	1543	6934
1	1536	6935
1	1530	6936
1	1528	6937
1	1518	6938
1	1506	6939
1	1607	6960
1	1607	6961
1	1607	6962
1	1607	6963
1	1607	6964
1	1607	6965
1	1600	6966
1	1593	6967
1	1582	6968
1	1577	6969
1	1576	6970
1	1584	6971
1	1593	6972
1	1597	6973
1	1604	6974
1	1607	6975
1	1607	6976
1	1609	6977
1	1611	6978
1	1607	6979
1	1502	6940
1	1501	6941
1	1502	6942
1	1503	6943
1	1504	6944
1	1514	6945
1	1516	6946
1	1526	6947
1	1534	6948
1	1553	6949
1	1574	6950
1	1586	6951
1	1597	6952
1	1607	6953
1	1618	6954
1	1628	6955
1	1634	6956
1	1629	6957
1	1620	6958
1	1611	6959
1	1596	6980
1	1589	6981
1	1592	6982
1	1602	6983
1	1613	6984
1	1625	6985
1	1638	6986
1	1644	6987
1	1647	6988
1	1652	6989
1	1659	6990
1	1660	6991
1	1659	6992
1	1656	6993
1	1647	6994
1	1642	6995
1	1634	6996
1	1631	6997
1	1629	6998
1	1631	6999
1	1629	7000
1	1629	7001
1	1619	7002
1	1605	7003
1	1586	7004
1	1569	7005
1	1559	7006
1	1555	7007
1	1558	7008
1	1566	7009
1	1576	7010
1	1579	7011
1	1589	7012
1	1594	7013
1	1594	7014
1	1599	7015
1	1616	7016
1	1634	7017
1	1644	7018
1	1650	7019
1	1682	7040
1	1667	7041
1	1660	7042
1	1658	7043
1	1647	7044
1	1639	7045
1	1638	7046
1	1634	7047
1	1632	7048
1	1626	7049
1	1620	7050
1	1620	7051
1	1621	7052
1	1631	7053
1	1642	7054
1	1656	7055
1	1665	7056
1	1680	7057
1	1697	7058
1	1710	7059
1	1654	7020
1	1659	7021
1	1661	7022
1	1665	7023
1	1672	7024
1	1673	7025
1	1660	7026
1	1652	7027
1	1639	7028
1	1629	7029
1	1620	7030
1	1617	7031
1	1620	7032
1	1625	7033
1	1638	7034
1	1657	7035
1	1670	7036
1	1682	7037
1	1687	7038
1	1686	7039
1	1723	7060
1	1741	7061
1	1754	7062
1	1764	7063
1	1772	7064
1	1773	7065
1	1772	7066
1	1772	7067
1	1765	7068
1	1760	7069
1	1748	7070
1	1726	7071
1	1711	7072
1	1695	7073
1	1685	7074
1	1683	7075
1	1689	7076
1	1702	7077
1	1718	7078
1	1738	7079
1	1753	7080
1	1764	7081
1	1765	7082
1	1762	7083
1	1750	7084
1	1736	7085
1	1716	7086
1	1710	7087
1	1711	7088
1	1717	7089
1	1735	7090
1	1755	7091
1	1767	7092
1	1778	7093
1	1782	7094
1	1779	7095
1	1773	7096
1	1766	7097
1	1764	7098
1	1767	7099
1	1778	7100
1	1790	7101
1	1803	7102
1	1813	7103
1	1809	7104
1	1795	7105
1	1791	7106
1	1778	7107
1	1764	7108
1	1752	7109
1	1746	7110
1	1743	7111
1	1740	7112
1	1738	7113
1	1741	7114
1	1746	7115
1	1750	7116
1	1764	7117
1	1778	7118
1	1782	7119
1	1778	7120
1	1778	7121
1	1775	7122
1	1773	7123
1	1767	7124
1	1762	7125
1	1744	7126
1	1738	7127
1	1733	7128
1	1724	7129
1	1712	7130
1	1701	7131
1	1696	7132
1	1691	7133
1	1692	7134
1	1695	7135
1	1703	7136
1	1711	7137
1	1715	7138
1	1712	7139
1	1710	7140
1	1699	7141
1	1687	7142
1	1669	7143
1	1657	7144
1	1638	7145
1	1610	7146
1	1593	7147
1	1580	7148
1	1568	7149
1	1562	7150
1	1571	7151
1	1580	7152
1	1589	7153
1	1606	7154
1	1623	7155
1	1635	7156
1	1649	7157
1	1657	7158
1	1660	7159
1	1660	7160
1	1652	7161
1	1647	7162
1	1647	7163
1	1641	7164
1	1633	7165
1	1625	7166
1	1611	7167
1	1602	7168
1	1588	7169
1	1576	7170
1	1557	7171
1	1542	7172
1	1530	7173
1	1524	7174
1	1515	7175
1	1505	7176
1	1505	7177
1	1502	7178
1	1496	7179
1	1492	7180
1	1501	7181
1	1499	7182
1	1494	7183
1	1490	7184
1	1481	7185
1	1472	7186
1	1451	7187
1	1448	7188
1	1441	7189
1	1441	7190
1	1448	7191
1	1458	7192
1	1476	7193
1	1501	7194
1	1527	7195
1	1555	7196
1	1575	7197
1	1589	7198
1	1597	7199
1	1595	7200
1	1592	7201
1	1583	7202
1	1571	7203
1	1559	7204
1	1547	7205
1	1526	7206
1	1507	7207
1	1490	7208
1	1465	7209
1	1445	7210
1	1437	7211
1	1432	7212
1	1436	7213
1	1449	7214
1	1466	7215
1	1489	7216
1	1508	7217
1	1530	7218
1	1555	7219
1	1544	7240
1	1566	7241
1	1580	7242
1	1582	7243
1	1571	7244
1	1555	7245
1	1533	7246
1	1514	7247
1	1499	7248
1	1491	7249
1	1489	7250
1	1479	7251
1	1476	7252
1	1467	7253
1	1455	7254
1	1448	7255
1	1449	7256
1	1447	7257
1	1449	7258
1	1461	7259
1	1574	7220
1	1585	7221
1	1591	7222
1	1593	7223
1	1579	7224
1	1553	7225
1	1530	7226
1	1501	7227
1	1481	7228
1	1463	7229
1	1448	7230
1	1433	7231
1	1428	7232
1	1437	7233
1	1447	7234
1	1456	7235
1	1471	7236
1	1487	7237
1	1504	7238
1	1526	7239
1	1477	7260
1	1497	7261
1	1514	7262
1	1526	7263
1	1531	7264
1	1536	7265
1	1531	7266
1	1531	7267
1	1526	7268
1	1520	7269
1	1517	7270
1	1520	7271
1	1516	7272
1	1516	7273
1	1517	7274
1	1521	7275
1	1530	7276
1	1539	7277
1	1542	7278
1	1548	7279
1	1549	7280
1	1545	7281
1	1546	7282
1	1545	7283
1	1544	7284
1	1544	7285
1	1547	7286
1	1542	7287
1	1539	7288
1	1538	7289
1	1535	7290
1	1534	7291
1	1535	7292
1	1536	7293
1	1530	7294
1	1528	7295
1	1521	7296
1	1517	7297
1	1521	7298
1	1533	7299
1	1551	7300
1	1573	7301
1	1589	7302
1	1598	7303
1	1602	7304
1	1595	7305
1	1590	7306
1	1589	7307
1	1593	7308
1	1592	7309
1	1590	7310
1	1580	7311
1	1574	7312
1	1571	7313
1	1566	7314
1	1561	7315
1	1562	7316
1	1556	7317
1	1553	7318
1	1549	7319
1	1544	7320
1	1536	7321
1	1529	7322
1	1528	7323
1	1523	7324
1	1512	7325
1	1496	7326
1	1479	7327
1	1469	7328
1	1461	7329
1	1461	7330
1	1467	7331
1	1481	7332
1	1501	7333
1	1521	7334
1	1539	7335
1	1559	7336
1	1587	7337
1	1608	7338
1	1634	7339
1	1646	7340
1	1644	7341
1	1633	7342
1	1615	7343
1	1598	7344
1	1581	7345
1	1566	7346
1	1557	7347
1	1544	7348
1	1530	7349
1	1519	7350
1	1516	7351
1	1517	7352
1	1526	7353
1	1539	7354
1	1555	7355
1	1564	7356
1	1580	7357
1	1592	7358
1	1602	7359
1	1612	7360
1	1633	7361
1	1636	7362
1	1637	7363
1	1629	7364
1	1615	7365
1	1595	7366
1	1572	7367
1	1553	7368
1	1542	7369
1	1541	7370
1	1539	7371
1	1539	7372
1	1542	7373
1	1541	7374
1	1539	7375
1	1545	7376
1	1553	7377
1	1566	7378
1	1582	7379
1	1603	7380
1	1622	7381
1	1643	7382
1	1664	7383
1	1679	7384
1	1679	7385
1	1674	7386
1	1660	7387
1	1643	7388
1	1623	7389
1	1607	7390
1	1598	7391
1	1579	7392
1	1557	7393
1	1546	7394
1	1539	7395
1	1531	7396
1	1529	7397
1	1531	7398
1	1543	7399
1	1556	7400
1	1567	7401
1	1580	7402
1	1581	7403
1	1570	7404
1	1556	7405
1	1547	7406
1	1535	7407
1	1527	7408
1	1518	7409
1	1516	7410
1	1519	7411
1	1528	7412
1	1539	7413
1	1554	7414
1	1569	7415
1	1576	7416
1	1585	7417
1	1597	7418
1	1607	7419
1	1621	7420
1	1636	7421
1	1644	7422
1	1647	7423
1	1638	7424
1	1628	7425
1	1607	7426
1	1595	7427
1	1585	7428
1	1581	7429
1	1574	7430
1	1561	7431
1	1554	7432
1	1553	7433
1	1555	7434
1	1566	7435
1	1580	7436
1	1593	7437
1	1608	7438
1	1618	7439
1	1629	7440
1	1634	7441
1	1629	7442
1	1625	7443
1	1620	7444
1	1612	7445
1	1599	7446
1	1586	7447
1	1572	7448
1	1557	7449
1	1545	7450
1	1542	7451
1	1535	7452
1	1537	7453
1	1542	7454
1	1550	7455
1	1565	7456
1	1581	7457
1	1600	7458
1	1615	7459
1	1625	7460
1	1628	7461
1	1632	7462
1	1629	7463
1	1625	7464
1	1625	7465
1	1626	7466
1	1616	7467
1	1605	7468
1	1597	7469
1	1587	7470
1	1582	7471
1	1582	7472
1	1590	7473
1	1595	7474
1	1601	7475
1	1594	7476
1	1590	7477
1	1592	7478
1	1594	7479
1	1644	7500
1	1641	7501
1	1634	7502
1	1625	7503
1	1612	7504
1	1598	7505
1	1580	7506
1	1570	7507
1	1567	7508
1	1564	7509
1	1556	7510
1	1551	7511
1	1540	7512
1	1535	7513
1	1533	7514
1	1542	7515
1	1556	7516
1	1576	7517
1	1600	7518
1	1616	7519
1	1597	7480
1	1604	7481
1	1598	7482
1	1595	7483
1	1592	7484
1	1587	7485
1	1584	7486
1	1581	7487
1	1576	7488
1	1567	7489
1	1563	7490
1	1558	7491
1	1561	7492
1	1569	7493
1	1577	7494
1	1589	7495
1	1607	7496
1	1619	7497
1	1631	7498
1	1639	7499
1	1628	7520
1	1633	7521
1	1639	7522
1	1646	7523
1	1647	7524
1	1647	7525
1	1652	7526
1	1647	7527
1	1647	7528
1	1642	7529
1	1633	7530
1	1618	7531
1	1603	7532
1	1594	7533
1	1593	7534
1	1592	7535
1	1585	7536
1	1581	7537
1	1581	7538
1	1581	7539
1	1581	7540
1	1581	7541
1	1572	7542
1	1564	7543
1	1562	7544
1	1566	7545
1	1568	7546
1	1573	7547
1	1582	7548
1	1594	7549
1	1604	7550
1	1607	7551
1	1612	7552
1	1623	7553
1	1636	7554
1	1647	7555
1	1662	7556
1	1674	7557
1	1685	7558
1	1687	7559
1	1686	7560
1	1684	7561
1	1685	7562
1	1679	7563
1	1661	7564
1	1638	7565
1	1610	7566
1	1591	7567
1	1570	7568
1	1552	7569
1	1538	7570
1	1540	7571
1	1540	7572
1	1544	7573
1	1550	7574
1	1558	7575
1	1566	7576
1	1575	7577
1	1585	7578
1	1595	7579
1	1607	7580
1	1616	7581
1	1634	7582
1	1652	7583
1	1665	7584
1	1671	7585
1	1671	7586
1	1664	7587
1	1659	7588
1	1647	7589
1	1638	7590
1	1625	7591
1	1610	7592
1	1602	7593
1	1595	7594
1	1594	7595
1	1593	7596
1	1597	7597
1	1609	7598
1	1621	7599
1	1634	7600
1	1651	7601
1	1661	7602
1	1667	7603
1	1665	7604
1	1660	7605
1	1649	7606
1	1638	7607
1	1625	7608
1	1612	7609
1	1605	7610
1	1594	7611
1	1593	7612
1	1600	7613
1	1607	7614
1	1621	7615
1	1637	7616
1	1641	7617
1	1634	7618
1	1633	7619
1	1751	7640
1	1750	7641
1	1749	7642
1	1742	7643
1	1736	7644
1	1719	7645
1	1706	7646
1	1682	7647
1	1656	7648
1	1630	7649
1	1607	7650
1	1596	7651
1	1592	7652
1	1595	7653
1	1600	7654
1	1609	7655
1	1625	7656
1	1643	7657
1	1658	7658
1	1665	7659
1	1626	7620
1	1620	7621
1	1618	7622
1	1621	7623
1	1629	7624
1	1633	7625
1	1628	7626
1	1622	7627
1	1616	7628
1	1607	7629
1	1602	7630
1	1599	7631
1	1607	7632
1	1619	7633
1	1634	7634
1	1660	7635
1	1686	7636
1	1706	7637
1	1726	7638
1	1741	7639
1	1678	7660
1	1686	7661
1	1690	7662
1	1700	7663
1	1712	7664
1	1723	7665
1	1729	7666
1	1731	7667
1	1726	7668
1	1723	7669
1	1721	7670
1	1715	7671
1	1717	7672
1	1715	7673
1	1715	7674
1	1715	7675
1	1721	7676
1	1723	7677
1	1724	7678
1	1724	7679
1	1724	7680
1	1722	7681
1	1718	7682
1	1713	7683
1	1706	7684
1	1687	7685
1	1674	7686
1	1662	7687
1	1649	7688
1	1638	7689
1	1634	7690
1	1636	7691
1	1637	7692
1	1644	7693
1	1652	7694
1	1670	7695
1	1695	7696
1	1716	7697
1	1733	7698
1	1742	7699
1	1750	7700
1	1749	7701
1	1747	7702
1	1742	7703
1	1737	7704
1	1725	7705
1	1713	7706
1	1692	7707
1	1673	7708
1	1655	7709
1	1638	7710
1	1625	7711
1	1612	7712
1	1608	7713
1	1608	7714
1	1609	7715
1	1607	7716
1	1608	7717
1	1620	7718
1	1633	7719
1	1647	7720
1	1659	7721
1	1661	7722
1	1660	7723
1	1654	7724
1	1643	7725
1	1629	7726
1	1602	7727
1	1581	7728
1	1572	7729
1	1569	7730
1	1570	7731
1	1578	7732
1	1585	7733
1	1597	7734
1	1607	7735
1	1619	7736
1	1625	7737
1	1631	7738
1	1644	7739
1	1662	7740
1	1674	7741
1	1678	7742
1	1678	7743
1	1674	7744
1	1667	7745
1	1661	7746
1	1660	7747
1	1661	7748
1	1661	7749
1	1659	7750
1	1660	7751
1	1659	7752
1	1652	7753
1	1649	7754
1	1644	7755
1	1633	7756
1	1616	7757
1	1590	7758
1	1577	7759
1	1567	7760
1	1557	7761
1	1562	7762
1	1568	7763
1	1575	7764
1	1589	7765
1	1607	7766
1	1634	7767
1	1665	7768
1	1704	7769
1	1749	7770
1	1791	7771
1	1831	7772
1	1864	7773
1	1893	7774
1	1917	7775
1	1935	7776
1	1961	7777
1	2000	7778
1	2047	7779
1	2170	7800
1	2089	7801
1	2003	7802
1	1917	7803
1	1827	7804
1	1729	7805
1	1634	7806
1	1555	7807
1	1488	7808
1	1431	7809
1	1376	7810
1	1344	7811
1	1316	7812
1	1298	7813
1	1299	7814
1	1305	7815
1	1314	7816
1	1331	7817
1	1364	7818
1	1410	7819
1	2104	7780
1	2157	7781
1	2212	7782
1	2279	7783
1	2339	7784
1	2392	7785
1	2441	7786
1	2488	7787
1	2514	7788
1	2528	7789
1	2535	7790
1	2520	7791
1	2509	7792
1	2493	7793
1	2465	7794
1	2431	7795
1	2398	7796
1	2358	7797
1	2312	7798
1	2249	7799
1	1458	7820
1	1503	7821
1	1544	7822
1	1581	7823
1	1611	7824
1	1639	7825
1	1664	7826
1	1678	7827
1	1691	7828
1	1691	7829
1	1684	7830
1	1671	7831
1	1657	7832
1	1646	7833
1	1637	7834
1	1634	7835
1	1637	7836
1	1643	7837
1	1647	7838
1	1651	7839
1	1652	7840
1	1652	7841
1	1646	7842
1	1639	7843
1	1634	7844
1	1627	7845
1	1611	7846
1	1603	7847
1	1607	7848
1	1611	7849
1	1626	7850
1	1638	7851
1	1655	7852
1	1672	7853
1	1699	7854
1	1734	7855
1	1773	7856
1	1791	7857
1	1800	7858
1	1802	7859
1	1802	7860
1	1796	7861
1	1782	7862
1	1764	7863
1	1746	7864
1	1730	7865
1	1707	7866
1	1687	7867
1	1669	7868
1	1647	7869
1	1635	7870
1	1629	7871
1	1628	7872
1	1626	7873
1	1634	7874
1	1644	7875
1	1657	7876
1	1674	7877
1	1688	7878
1	1700	7879
1	1773	7900
1	1791	7901
1	1802	7902
1	1809	7903
1	1816	7904
1	1818	7905
1	1817	7906
1	1812	7907
1	1791	7908
1	1764	7909
1	1733	7910
1	1690	7911
1	1659	7912
1	1633	7913
1	1615	7914
1	1608	7915
1	1618	7916
1	1629	7917
1	1644	7918
1	1662	7919
1	1705	7880
1	1701	7881
1	1701	7882
1	1701	7883
1	1697	7884
1	1686	7885
1	1680	7886
1	1661	7887
1	1656	7888
1	1656	7889
1	1660	7890
1	1661	7891
1	1669	7892
1	1680	7893
1	1688	7894
1	1701	7895
1	1712	7896
1	1733	7897
1	1752	7898
1	1764	7899
1	1687	7920
1	1711	7921
1	1735	7922
1	1752	7923
1	1764	7924
1	1766	7925
1	1760	7926
1	1755	7927
1	1751	7928
1	1745	7929
1	1741	7930
1	1740	7931
1	1738	7932
1	1728	7933
1	1730	7934
1	1740	7935
1	1751	7936
1	1757	7937
1	1765	7938
1	1773	7939
1	1781	7940
1	1786	7941
1	1787	7942
1	1782	7943
1	1773	7944
1	1764	7945
1	1752	7946
1	1734	7947
1	1727	7948
1	1724	7949
1	1724	7950
1	1718	7951
1	1716	7952
1	1721	7953
1	1731	7954
1	1738	7955
1	1741	7956
1	1749	7957
1	1764	7958
1	1788	7959
1	1815	7960
1	1841	7961
1	1861	7962
1	1881	7963
1	1895	7964
1	1903	7965
1	1901	7966
1	1891	7967
1	1871	7968
1	1847	7969
1	1821	7970
1	1791	7971
1	1764	7972
1	1734	7973
1	1710	7974
1	1703	7975
1	1699	7976
1	1698	7977
1	1698	7978
1	1697	7979
1	1696	7980
1	1706	7981
1	1725	7982
1	1755	7983
1	1791	7984
1	1832	7985
1	1850	7986
1	1859	7987
1	1860	7988
1	1859	7989
1	1854	7990
1	1854	7991
1	1848	7992
1	1845	7993
1	1843	7994
1	1844	7995
1	1849	7996
1	1856	7997
1	1865	7998
1	1869	7999
1	1874	8000
1	1871	8000
1	1869	8002
1	1861	8003
1	1856	8004
1	1854	8005
1	1859	8006
1	1851	8007
1	1846	8008
1	1845	8009
1	1843	8010
1	1842	8011
1	1841	8012
1	1844	8013
1	1854	8013
1	1860	8015
1	1868	8016
1	1881	8016
1	1895	8018
1	1916	8019
1	1944	8020
1	1963	8021
1	1974	8022
1	1974	8023
1	1958	8024
1	1935	8025
1	1919	8026
1	1898	8027
1	1888	8028
1	1875	8029
1	1868	8029
1	1862	8031
1	1856	8032
1	1855	8032
1	1854	8034
1	1858	8035
1	1870	8036
1	1881	8037
1	1895	8038
1	1913	8039
1	1929	8040
1	1940	8041
1	1945	8042
1	1937	8043
1	1926	8044
1	1917	8045
1	1896	8045
1	1883	8047
1	1868	8048
1	1854	8048
1	1848	8050
1	1856	8051
1	1855	8052
1	1867	8053
1	1875	8054
1	1887	8055
1	1899	8056
1	1909	8057
1	1914	8058
1	1913	8059
1	1908	8060
1	1897	8061
1	1895	8061
1	1887	8063
1	1881	8064
1	1868	8064
1	1856	8066
1	1841	8067
1	1821	8068
1	1803	8069
1	1791	8070
1	1778	8071
1	1764	8072
1	1764	8073
1	1773	8074
1	1783	8074
1	1782	8076
1	1780	8077
1	1778	8077
1	1772	8079
1	1775	8080
1	1767	8080
1	1763	8082
1	1752	8083
1	1739	8084
1	1731	8085
1	1722	8086
1	1711	8087
1	1699	8088
1	1687	8089
1	1679	8090
1	1667	8090
1	1661	8092
1	1665	8093
1	1663	8093
1	1665	8095
1	1662	8096
1	1661	8096
1	1665	8098
1	1672	8099
1	1682	8100
1	1687	8101
1	1694	8102
1	1697	8103
1	1699	8104
1	1701	8105
1	1699	8106
1	1697	8106
1	1695	8108
1	1686	8109
1	1687	8109
1	1685	8111
1	1680	8112
1	1687	8113
1	1698	8114
1	1703	8115
1	1715	8116
1	1729	8117
1	1738	8118
1	1738	8119
1	1733	8120
1	1718	8121
1	1710	8122
1	1699	8122
1	1686	8124
1	1664	8125
1	1647	8125
1	1620	8127
1	1607	8128
1	1592	8129
1	1577	8130
1	1567	8131
1	1557	8132
1	1556	8133
1	1555	8134
1	1557	8135
1	1566	8136
1	1581	8137
1	1602	8138
1	1626	8138
1	1652	8140
1	1677	8141
1	1688	8141
1	1686	8143
1	1683	8144
1	1672	8145
1	1651	8146
1	1625	8147
1	1597	8148
1	1579	8149
1	1565	8150
1	1555	8151
1	1555	8152
1	1565	8153
1	1584	8154
1	1607	8154
1	1633	8156
1	1638	8157
1	1646	8157
1	1651	8159
1	1660	8160
1	1665	8161
1	1664	8162
1	1656	8163
1	1645	8164
1	1636	8165
1	1626	8166
1	1620	8167
1	1610	8168
1	1602	8169
1	1602	8170
1	1595	8170
1	1590	8172
1	1592	8173
1	1599	8173
1	1604	8175
1	1607	8176
1	1611	8177
1	1618	8178
1	1630	8179
1	1647	8180
1	1661	8181
1	1678	8182
1	1685	8183
1	1686	8184
1	1688	8185
1	1701	8186
1	1708	8186
1	1717	8188
1	1726	8189
1	1731	8189
1	1725	8191
1	1713	8192
1	1701	8193
1	1692	8194
1	1685	8195
1	1679	8196
1	1675	8197
1	1674	8198
1	1673	8199
1	1679	8200
1	1691	8201
1	1698	8202
1	1699	8203
1	1697	8204
1	1692	8205
1	1682	8206
1	1667	8207
1	1659	8208
1	1649	8209
1	1638	8210
1	1629	8211
1	1625	8212
1	1634	8213
1	1647	8214
1	1670	8215
1	1685	8216
1	1698	8217
1	1714	8218
1	1729	8219
1	1743	8220
1	1757	8221
1	1769	8222
1	1772	8223
1	1764	8224
1	1752	8225
1	1726	8226
1	1701	8227
1	1681	8228
1	1661	8229
1	1654	8230
1	1647	8231
1	1634	8232
1	1629	8233
1	1625	8234
1	1630	8235
1	1641	8236
1	1656	8237
1	1667	8238
1	1682	8239
1	1694	8240
1	1697	8241
1	1700	8242
1	1699	8243
1	1700	8244
1	1698	8245
1	1700	8246
1	1694	8247
1	1690	8248
1	1691	8249
1	1699	8250
1	1704	8251
1	1711	8252
1	1712	8253
1	1721	8254
1	1734	8255
1	1738	8256
1	1751	8257
1	1762	8258
1	1772	8259
1	1778	8260
1	1782	8261
1	1766	8262
1	1751	8263
1	1740	8264
1	1737	8265
1	1736	8266
1	1728	8267
1	1721	8268
1	1716	8269
1	1714	8270
1	1711	8271
1	1712	8272
1	1715	8273
1	1715	8274
1	1719	8275
1	1719	8276
1	1720	8277
1	1720	8278
1	1724	8279
1	1728	8280
1	1731	8281
1	1730	8282
1	1716	8283
1	1712	8284
1	1704	8285
1	1699	8286
1	1690	8287
1	1686	8288
1	1674	8289
1	1662	8290
1	1667	8291
1	1674	8292
1	1686	8293
1	1698	8294
1	1710	8295
1	1725	8296
1	1738	8297
1	1748	8298
1	1755	8299
1	1764	8300
1	1762	8301
1	1760	8302
1	1750	8303
1	1741	8304
1	1734	8305
1	1721	8306
1	1697	8307
1	1668	8308
1	1641	8309
1	1625	8310
1	1616	8311
1	1620	8312
1	1632	8313
1	1647	8314
1	1662	8315
1	1664	8316
1	1668	8317
1	1680	8318
1	1699	8319
1	1726	8320
1	1747	8321
1	1764	8322
1	1779	8323
1	1783	8324
1	1778	8325
1	1766	8326
1	1747	8327
1	1726	8328
1	1705	8329
1	1685	8330
1	1670	8331
1	1670	8332
1	1674	8333
1	1679	8334
1	1687	8335
1	1700	8336
1	1708	8337
1	1712	8338
1	1724	8339
1	1747	8340
1	1764	8341
1	1785	8342
1	1801	8343
1	1817	8344
1	1819	8345
1	1809	8346
1	1795	8347
1	1790	8348
1	1780	8349
1	1764	8350
1	1755	8351
1	1742	8352
1	1728	8353
1	1712	8354
1	1697	8355
1	1686	8356
1	1685	8357
1	1687	8358
1	1695	8359
1	1697	8360
1	1687	8361
1	1685	8362
1	1674	8363
1	1662	8364
1	1663	8365
1	1660	8366
1	1659	8367
1	1660	8368
1	1665	8369
1	1675	8370
1	1687	8371
1	1704	8372
1	1718	8373
1	1731	8374
1	1742	8375
1	1752	8376
1	1764	8377
1	1773	8378
1	1778	8379
1	1791	8380
1	1783	8381
1	1773	8382
1	1751	8383
1	1738	8384
1	1712	8385
1	1688	8386
1	1664	8387
1	1644	8388
1	1625	8389
1	1611	8390
1	1607	8391
1	1616	8392
1	1636	8393
1	1661	8394
1	1686	8395
1	1719	8396
1	1741	8397
1	1762	8398
1	1778	8399
1	1788	8400
1	1791	8401
1	1795	8402
1	1791	8403
1	1775	8404
1	1755	8405
1	1729	8406
1	1707	8407
1	1684	8408
1	1659	8409
1	1643	8410
1	1645	8411
1	1648	8412
1	1658	8413
1	1669	8414
1	1684	8415
1	1697	8416
1	1703	8417
1	1710	8418
1	1718	8419
1	1768	8440
1	1772	8441
1	1773	8442
1	1765	8443
1	1764	8444
1	1754	8445
1	1741	8446
1	1733	8447
1	1716	8448
1	1701	8449
1	1687	8450
1	1667	8451
1	1655	8452
1	1647	8453
1	1647	8454
1	1651	8455
1	1667	8456
1	1674	8457
1	1682	8458
1	1694	8459
1	1728	8420
1	1737	8421
1	1747	8422
1	1755	8423
1	1764	8424
1	1764	8425
1	1776	8426
1	1767	8427
1	1764	8428
1	1753	8429
1	1739	8430
1	1726	8431
1	1710	8432
1	1705	8433
1	1708	8434
1	1715	8435
1	1731	8436
1	1742	8437
1	1754	8438
1	1764	8439
1	1710	8460
1	1724	8461
1	1739	8462
1	1752	8463
1	1760	8464
1	1764	8465
1	1755	8466
1	1752	8467
1	1749	8468
1	1738	8469
1	1729	8470
1	1719	8471
1	1714	8472
1	1720	8473
1	1729	8474
1	1742	8475
1	1759	8476
1	1779	8477
1	1800	8478
1	1817	8479
1	1823	8480
1	1824	8481
1	1823	8482
1	1820	8483
1	1818	8484
1	1814	8485
1	1815	8486
1	1803	8487
1	1796	8488
1	1789	8489
1	1780	8490
1	1765	8491
1	1753	8492
1	1739	8493
1	1724	8494
1	1712	8495
1	1692	8496
1	1683	8497
1	1680	8498
1	1686	8499
1	1690	8500
1	1705	8501
1	1712	8502
1	1724	8503
1	1738	8504
1	1749	8505
1	1751	8506
1	1750	8507
1	1746	8508
1	1739	8509
1	1731	8510
1	1715	8511
1	1708	8512
1	1701	8513
1	1698	8514
1	1705	8515
1	1712	8516
1	1712	8517
1	1715	8518
1	1721	8519
1	1734	8520
1	1751	8521
1	1773	8522
1	1791	8523
1	1800	8524
1	1808	8525
1	1796	8526
1	1786	8527
1	1773	8528
1	1765	8529
1	1760	8530
1	1752	8531
1	1737	8532
1	1733	8533
1	1731	8534
1	1736	8535
1	1742	8536
1	1757	8537
1	1778	8538
1	1800	8539
1	1818	8540
1	1818	8541
1	1821	8542
1	1817	8543
1	1809	8544
1	1791	8545
1	1778	8546
1	1755	8547
1	1731	8548
1	1710	8549
1	1701	8550
1	1705	8551
1	1712	8552
1	1724	8553
1	1733	8554
1	1740	8555
1	1741	8556
1	1747	8557
1	1757	8558
1	1775	8559
1	1795	8560
1	1818	8561
1	1819	8562
1	1816	8563
1	1812	8564
1	1800	8565
1	1793	8566
1	1791	8567
1	1790	8568
1	1789	8569
1	1787	8570
1	1777	8571
1	1775	8572
1	1778	8573
1	1787	8574
1	1800	8575
1	1808	8576
1	1809	8577
1	1813	8578
1	1811	8579
1	1823	8600
1	1819	8601
1	1818	8602
1	1817	8603
1	1816	8604
1	1813	8605
1	1817	8606
1	1817	8607
1	1822	8608
1	1829	8609
1	1832	8610
1	1831	8611
1	1830	8612
1	1829	8613
1	1837	8614
1	1843	8615
1	1842	8616
1	1843	8617
1	1843	8618
1	1843	8619
1	1809	8580
1	1809	8581
1	1809	8582
1	1808	8583
1	1809	8584
1	1812	8585
1	1801	8586
1	1791	8587
1	1774	8588
1	1756	8589
1	1742	8590
1	1737	8591
1	1729	8592
1	1730	8593
1	1738	8594
1	1751	8595
1	1764	8596
1	1776	8597
1	1793	8598
1	1817	8599
1	1852	8620
1	1849	8621
1	1844	8622
1	1843	8623
1	1832	8624
1	1823	8625
1	1817	8626
1	1809	8627
1	1803	8628
1	1795	8629
1	1786	8630
1	1770	8631
1	1756	8632
1	1742	8633
1	1723	8634
1	1703	8635
1	1694	8636
1	1691	8637
1	1684	8638
1	1688	8639
1	1697	8640
1	1705	8641
1	1717	8642
1	1730	8643
1	1738	8644
1	1751	8645
1	1760	8646
1	1769	8647
1	1778	8648
1	1776	8649
1	1764	8650
1	1763	8651
1	1756	8652
1	1752	8653
1	1751	8654
1	1751	8655
1	1752	8656
1	1755	8657
1	1758	8658
1	1764	8659
1	1782	8660
1	1791	8661
1	1796	8662
1	1796	8663
1	1792	8664
1	1791	8665
1	1785	8666
1	1775	8667
1	1764	8668
1	1751	8669
1	1744	8670
1	1740	8671
1	1736	8672
1	1724	8673
1	1715	8674
1	1711	8675
1	1705	8676
1	1710	8677
1	1710	8678
1	1706	8679
1	1824	8700
1	1867	8701
1	1910	8702
1	1958	8703
1	2003	8704
1	2042	8705
1	2066	8706
1	2092	8707
1	2129	8708
1	2161	8709
1	2192	8710
1	2235	8711
1	2264	8712
1	2298	8713
1	2336	8714
1	2384	8715
1	2444	8716
1	2506	8717
1	2561	8718
1	2617	8719
1	1711	8680
1	1712	8681
1	1711	8682
1	1703	8683
1	1712	8684
1	1713	8685
1	1712	8686
1	1698	8687
1	1685	8688
1	1671	8689
1	1659	8690
1	1643	8691
1	1638	8692
1	1651	8693
1	1661	8694
1	1684	8695
1	1712	8696
1	1736	8697
1	1757	8698
1	1785	8699
1	2657	8720
1	2682	8721
1	2688	8722
1	2677	8723
1	2642	8724
1	2584	8725
1	2527	8726
1	2454	8727
1	2372	8728
1	2278	8729
1	2184	8730
1	2080	8731
1	1974	8732
1	1872	8733
1	1777	8734
1	1688	8735
1	1607	8736
1	1542	8737
1	1489	8738
1	1445	8739
1	1420	8740
1	1405	8741
1	1407	8742
1	1417	8743
1	1431	8744
1	1453	8745
1	1474	8746
1	1487	8747
1	1498	8748
1	1512	8749
1	1528	8750
1	1541	8751
1	1561	8752
1	1588	8753
1	1611	8754
1	1634	8755
1	1660	8756
1	1675	8757
1	1688	8758
1	1700	8759
1	1698	8760
1	1695	8761
1	1700	8762
1	1697	8763
1	1686	8764
1	1671	8765
1	1655	8766
1	1639	8767
1	1631	8768
1	1623	8769
1	1633	8770
1	1648	8771
1	1677	8772
1	1712	8773
1	1744	8774
1	1776	8775
1	1811	8776
1	1835	8777
1	1855	8778
1	1862	8779
1	1860	8780
1	1849	8781
1	1837	8782
1	1822	8783
1	1796	8784
1	1778	8785
1	1769	8786
1	1756	8787
1	1740	8788
1	1731	8789
1	1724	8790
1	1713	8791
1	1705	8792
1	1701	8793
1	1710	8794
1	1721	8795
1	1734	8796
1	1753	8797
1	1770	8798
1	1789	8799
1	1801	8800
1	1817	8801
1	1821	8802
1	1817	8803
1	1798	8804
1	1782	8805
1	1778	8806
1	1772	8807
1	1767	8808
1	1760	8809
1	1751	8810
1	1738	8811
1	1737	8812
1	1733	8813
1	1734	8814
1	1742	8815
1	1751	8816
1	1764	8817
1	1778	8818
1	1796	8819
1	1821	8820
1	1839	8821
1	1845	8822
1	1845	8823
1	1840	8824
1	1823	8825
1	1801	8826
1	1789	8827
1	1782	8828
1	1776	8829
1	1766	8830
1	1755	8831
1	1744	8832
1	1731	8833
1	1726	8834
1	1717	8835
1	1715	8836
1	1721	8837
1	1730	8838
1	1738	8839
1	1750	8840
1	1752	8841
1	1754	8842
1	1754	8843
1	1749	8844
1	1747	8845
1	1752	8846
1	1752	8847
1	1751	8848
1	1754	8849
1	1755	8850
1	1754	8851
1	1751	8852
1	1751	8853
1	1750	8854
1	1749	8855
1	1746	8856
1	1751	8857
1	1759	8858
1	1761	8859
1	1762	8860
1	1763	8861
1	1757	8862
1	1754	8863
1	1760	8864
1	1766	8865
1	1773	8866
1	1779	8867
1	1787	8868
1	1787	8869
1	1791	8870
1	1799	8871
1	1816	8872
1	1828	8873
1	1837	8874
1	1850	8875
1	1860	8876
1	1874	8877
1	1880	8878
1	1875	8879
1	1864	8880
1	1847	8881
1	1840	8882
1	1836	8883
1	1832	8884
1	1827	8885
1	1818	8886
1	1817	8887
1	1820	8888
1	1825	8889
1	1839	8890
1	1843	8891
1	1856	8892
1	1867	8893
1	1869	8894
1	1877	8895
1	1888	8896
1	1895	8897
1	1899	8898
1	1895	8899
1	1890	8900
1	1880	8901
1	1870	8902
1	1869	8903
1	1871	8904
1	1880	8905
1	1874	8906
1	1872	8907
1	1875	8908
1	1877	8909
1	1873	8910
1	1870	8911
1	1871	8912
1	1872	8913
1	1873	8914
1	1881	8915
1	1880	8916
1	1880	8917
1	1882	8918
1	1872	8919
1	1869	8920
1	1855	8921
1	1844	8922
1	1841	8923
1	1836	8924
1	1836	8925
1	1834	8926
1	1827	8927
1	1821	8928
1	1817	8929
1	1817	8930
1	1817	8931
1	1821	8932
1	1830	8933
1	1843	8934
1	1859	8935
1	1869	8936
1	1877	8937
1	1886	8938
1	1896	8939
1	1912	8940
1	1922	8941
1	1919	8942
1	1916	8943
1	1909	8944
1	1900	8945
1	1888	8946
1	1885	8947
1	1890	8948
1	1895	8949
1	1901	8950
1	1921	8951
1	1932	8952
1	1940	8953
1	1946	8954
1	1949	8955
1	1961	8956
1	1971	8957
1	1972	8958
1	1980	8959
1	1908	8980
1	1908	8981
1	1908	8982
1	1908	8983
1	1898	8984
1	1896	8985
1	1890	8986
1	1880	8987
1	1869	8988
1	1858	8989
1	1858	8990
1	1855	8991
1	1865	8992
1	1878	8993
1	1895	8994
1	1911	8995
1	1933	8996
1	1936	8997
1	1923	8998
1	1908	8999
1	1983	8960
1	1976	8961
1	1974	8962
1	1970	8963
1	1965	8964
1	1966	8965
1	1960	8966
1	1948	8967
1	1931	8968
1	1909	8969
1	1895	8970
1	1886	8971
1	1886	8972
1	1890	8973
1	1896	8974
1	1904	8975
1	1897	8976
1	1896	8977
1	1897	8978
1	1899	8979
1	1893	9000
1	1872	9001
1	1854	9002
1	1831	9003
1	1800	9004
1	1777	9005
1	1760	9006
1	1755	9007
1	1751	9008
1	1742	9009
1	1738	9010
1	1744	9011
1	1746	9012
1	1744	9013
1	1738	9014
1	1734	9015
1	1731	9016
1	1726	9017
1	1725	9018
1	1731	9019
1	1688	9040
1	1674	9041
1	1658	9042
1	1644	9043
1	1634	9044
1	1630	9045
1	1618	9046
1	1608	9047
1	1607	9048
1	1602	9049
1	1599	9050
1	1582	9051
1	1578	9052
1	1572	9053
1	1573	9054
1	1584	9055
1	1607	9056
1	1630	9057
1	1656	9058
1	1683	9059
1	1738	9020
1	1738	9021
1	1747	9022
1	1754	9023
1	1756	9024
1	1757	9025
1	1763	9026
1	1743	9027
1	1729	9028
1	1706	9029
1	1701	9030
1	1701	9031
1	1698	9032
1	1701	9033
1	1709	9034
1	1710	9035
1	1710	9036
1	1710	9037
1	1710	9038
1	1700	9039
1	1698	9060
1	1712	9061
1	1726	9062
1	1734	9063
1	1731	9064
1	1724	9065
1	1701	9066
1	1682	9067
1	1657	9068
1	1633	9069
1	1612	9070
1	1600	9071
1	1590	9072
1	1586	9073
1	1589	9074
1	1603	9075
1	1621	9076
1	1634	9077
1	1638	9078
1	1646	9079
1	1648	9080
1	1645	9081
1	1643	9082
1	1638	9083
1	1634	9084
1	1619	9085
1	1620	9086
1	1616	9087
1	1616	9088
1	1610	9089
1	1603	9090
1	1597	9091
1	1597	9092
1	1606	9093
1	1613	9094
1	1625	9095
1	1626	9096
1	1629	9097
1	1634	9098
1	1634	9099
1	1643	9100
1	1660	9101
1	1667	9102
1	1670	9103
1	1665	9104
1	1662	9105
1	1660	9106
1	1652	9107
1	1643	9108
1	1631	9109
1	1612	9110
1	1595	9111
1	1590	9112
1	1593	9113
1	1594	9114
1	1604	9115
1	1618	9116
1	1625	9117
1	1626	9118
1	1631	9119
1	1635	9120
1	1645	9121
1	1660	9122
1	1674	9123
1	1685	9124
1	1698	9125
1	1700	9126
1	1698	9127
1	1688	9128
1	1681	9129
1	1664	9130
1	1648	9131
1	1641	9132
1	1635	9133
1	1636	9134
1	1641	9135
1	1650	9136
1	1664	9137
1	1675	9138
1	1687	9139
1	1700	9140
1	1701	9141
1	1705	9142
1	1706	9143
1	1701	9144
1	1692	9145
1	1686	9146
1	1677	9147
1	1664	9148
1	1657	9149
1	1647	9150
1	1636	9151
1	1629	9152
1	1620	9153
1	1616	9154
1	1613	9155
1	1605	9156
1	1599	9157
1	1602	9158
1	1611	9159
1	1626	9160
1	1652	9161
1	1662	9162
1	1668	9163
1	1670	9164
1	1679	9165
1	1686	9166
1	1692	9167
1	1697	9168
1	1695	9169
1	1693	9170
1	1685	9171
1	1676	9172
1	1667	9173
1	1660	9174
1	1660	9175
1	1660	9176
1	1669	9177
1	1682	9178
1	1697	9179
1	1701	9180
1	1697	9181
1	1686	9182
1	1677	9183
1	1670	9184
1	1670	9185
1	1661	9186
1	1659	9187
1	1656	9188
1	1653	9189
1	1656	9190
1	1661	9191
1	1664	9192
1	1665	9193
1	1672	9194
1	1679	9195
1	1686	9196
1	1693	9197
1	1699	9198
1	1705	9199
1	1708	9200
1	1702	9201
1	1703	9202
1	1712	9203
1	1714	9204
1	1723	9205
1	1733	9206
1	1733	9207
1	1728	9208
1	1724	9209
1	1726	9210
1	1733	9211
1	1739	9212
1	1746	9213
1	1747	9214
1	1739	9215
1	1720	9216
1	1697	9217
1	1675	9218
1	1660	9219
1	1656	9220
1	1652	9221
1	1650	9222
1	1656	9223
1	1663	9224
1	1664	9225
1	1665	9226
1	1660	9227
1	1656	9228
1	1646	9229
1	1629	9230
1	1607	9231
1	1595	9232
1	1590	9233
1	1591	9234
1	1598	9235
1	1610	9236
1	1629	9237
1	1647	9238
1	1662	9239
1	1683	9240
1	1688	9241
1	1688	9242
1	1683	9243
1	1674	9244
1	1661	9245
1	1642	9246
1	1629	9247
1	1616	9248
1	1606	9249
1	1604	9250
1	1607	9251
1	1608	9252
1	1621	9253
1	1636	9254
1	1651	9255
1	1668	9256
1	1696	9257
1	1724	9258
1	1743	9259
1	1753	9260
1	1751	9261
1	1744	9262
1	1738	9263
1	1724	9264
1	1716	9265
1	1708	9266
1	1698	9267
1	1687	9268
1	1674	9269
1	1662	9270
1	1652	9271
1	1644	9272
1	1629	9273
1	1621	9274
1	1621	9275
1	1626	9276
1	1634	9277
1	1655	9278
1	1672	9279
1	1699	9280
1	1715	9281
1	1733	9282
1	1746	9283
1	1755	9284
1	1762	9285
1	1754	9286
1	1742	9287
1	1725	9288
1	1711	9289
1	1699	9290
1	1688	9291
1	1678	9292
1	1665	9293
1	1658	9294
1	1652	9295
1	1656	9296
1	1658	9297
1	1657	9298
1	1649	9299
1	1647	9300
1	1645	9301
1	1643	9302
1	1641	9303
1	1641	9304
1	1639	9305
1	1633	9306
1	1625	9307
1	1622	9308
1	1618	9309
1	1612	9310
1	1613	9311
1	1611	9312
1	1611	9313
1	1611	9314
1	1609	9315
1	1610	9316
1	1616	9317
1	1620	9318
1	1622	9319
1	1623	9320
1	1620	9321
1	1620	9322
1	1625	9323
1	1631	9324
1	1636	9325
1	1651	9326
1	1652	9327
1	1661	9328
1	1661	9329
1	1673	9330
1	1672	9331
1	1661	9332
1	1659	9333
1	1659	9334
1	1659	9335
1	1665	9336
1	1680	9337
1	1690	9338
1	1697	9339
1	1695	9340
1	1692	9341
1	1694	9342
1	1701	9343
1	1703	9344
1	1705	9345
1	1693	9346
1	1685	9347
1	1672	9348
1	1660	9349
1	1652	9350
1	1649	9351
1	1652	9352
1	1654	9353
1	1654	9354
1	1654	9355
1	1660	9356
1	1663	9357
1	1674	9358
1	1688	9359
1	1734	9380
1	1733	9381
1	1729	9382
1	1729	9383
1	1723	9384
1	1710	9385
1	1700	9386
1	1685	9387
1	1671	9388
1	1660	9389
1	1651	9390
1	1647	9391
1	1647	9392
1	1647	9393
1	1652	9394
1	1652	9395
1	1647	9396
1	1651	9397
1	1658	9398
1	1664	9399
1	1708	9360
1	1723	9361
1	1729	9362
1	1727	9363
1	1715	9364
1	1703	9365
1	1691	9366
1	1687	9367
1	1690	9368
1	1690	9369
1	1688	9370
1	1683	9371
1	1676	9372
1	1670	9373
1	1666	9374
1	1669	9375
1	1678	9376
1	1687	9377
1	1705	9378
1	1721	9379
1	1664	9400
1	1670	9401
1	1667	9402
1	1662	9403
1	1658	9404
1	1649	9405
1	1638	9406
1	1633	9407
1	1634	9408
1	1634	9409
1	1639	9410
1	1646	9411
1	1657	9412
1	1672	9413
1	1688	9414
1	1711	9415
1	1737	9416
1	1759	9417
1	1778	9418
1	1791	9419
1	1809	9420
1	1821	9421
1	1830	9422
1	1838	9423
1	1840	9424
1	1835	9425
1	1818	9426
1	1803	9427
1	1791	9428
1	1778	9429
1	1764	9430
1	1748	9431
1	1726	9432
1	1707	9433
1	1694	9434
1	1684	9435
1	1683	9436
1	1686	9437
1	1689	9438
1	1690	9439
1	1686	9440
1	1682	9441
1	1682	9442
1	1685	9443
1	1686	9444
1	1693	9445
1	1702	9446
1	1700	9447
1	1689	9448
1	1679	9449
1	1662	9450
1	1651	9451
1	1634	9452
1	1621	9453
1	1609	9454
1	1608	9455
1	1609	9456
1	1620	9457
1	1634	9458
1	1647	9459
1	1667	9460
1	1693	9461
1	1712	9462
1	1728	9463
1	1740	9464
1	1746	9465
1	1746	9466
1	1738	9467
1	1726	9468
1	1711	9469
1	1693	9470
1	1672	9471
1	1657	9472
1	1634	9473
1	1612	9474
1	1602	9475
1	1587	9476
1	1587	9477
1	1598	9478
1	1613	9479
1	1628	9480
1	1636	9481
1	1646	9482
1	1654	9483
1	1660	9484
1	1660	9485
1	1656	9486
1	1648	9487
1	1638	9488
1	1629	9489
1	1620	9490
1	1620	9491
1	1616	9492
1	1616	9493
1	1619	9494
1	1633	9495
1	1649	9496
1	1675	9497
1	1697	9498
1	1708	9499
1	1710	9500
1	1701	9501
1	1699	9502
1	1687	9503
1	1672	9504
1	1656	9505
1	1643	9506
1	1626	9507
1	1608	9508
1	1597	9509
1	1584	9510
1	1567	9511
1	1558	9512
1	1554	9513
1	1555	9514
1	1566	9515
1	1582	9516
1	1607	9517
1	1634	9518
1	1660	9519
1	1701	9520
1	1738	9521
1	1775	9522
1	1816	9523
1	1843	9524
1	1867	9525
1	1890	9526
1	1903	9527
1	1922	9528
1	1940	9529
1	1960	9530
1	1982	9531
1	2014	9532
1	2053	9533
1	2096	9534
1	2143	9535
1	2202	9536
1	2270	9537
1	2329	9538
1	2381	9539
1	2446	9540
1	2503	9541
1	2538	9542
1	2559	9543
1	2560	9544
1	2545	9545
1	2512	9546
1	2464	9547
1	2399	9548
1	2323	9549
1	2237	9550
1	2150	9551
1	2067	9552
1	1985	9553
1	1901	9554
1	1817	9555
1	1730	9556
1	1658	9557
1	1593	9558
1	1539	9559
1	1494	9560
1	1450	9561
1	1422	9562
1	1398	9563
1	1380	9564
1	1374	9565
1	1368	9566
1	1361	9567
1	1359	9568
1	1358	9569
1	1361	9570
1	1372	9571
1	1398	9572
1	1428	9573
1	1462	9574
1	1490	9575
1	1513	9576
1	1543	9577
1	1572	9578
1	1595	9579
1	1625	9580
1	1641	9581
1	1647	9582
1	1652	9583
1	1650	9584
1	1646	9585
1	1631	9586
1	1608	9587
1	1586	9588
1	1571	9589
1	1566	9590
1	1566	9591
1	1563	9592
1	1568	9593
1	1579	9594
1	1591	9595
1	1607	9596
1	1611	9597
1	1621	9598
1	1634	9599
1	1651	9600
1	1675	9601
1	1700	9602
1	1724	9603
1	1742	9604
1	1760	9605
1	1765	9606
1	1770	9607
1	1773	9608
1	1767	9609
1	1759	9610
1	1746	9611
1	1728	9612
1	1710	9613
1	1690	9614
1	1677	9615
1	1667	9616
1	1661	9617
1	1659	9618
1	1660	9619
1	1666	9620
1	1667	9621
1	1664	9622
1	1660	9623
1	1652	9624
1	1637	9625
1	1629	9626
1	1613	9627
1	1602	9628
1	1585	9629
1	1581	9630
1	1564	9631
1	1557	9632
1	1553	9633
1	1554	9634
1	1555	9635
1	1569	9636
1	1585	9637
1	1607	9638
1	1625	9639
1	1646	9640
1	1672	9641
1	1684	9642
1	1708	9643
1	1729	9644
1	1751	9645
1	1765	9646
1	1775	9647
1	1778	9648
1	1765	9649
1	1754	9650
1	1738	9651
1	1727	9652
1	1713	9653
1	1705	9654
1	1699	9655
1	1697	9656
1	1686	9657
1	1682	9658
1	1680	9659
1	1682	9660
1	1678	9661
1	1669	9662
1	1661	9663
1	1647	9664
1	1634	9665
1	1614	9666
1	1603	9667
1	1594	9668
1	1589	9669
1	1597	9670
1	1599	9671
1	1607	9672
1	1616	9673
1	1633	9674
1	1654	9675
1	1686	9676
1	1717	9677
1	1744	9678
1	1764	9679
1	1734	9700
1	1747	9701
1	1757	9702
1	1766	9703
1	1768	9704
1	1755	9705
1	1733	9706
1	1701	9707
1	1674	9708
1	1656	9709
1	1641	9710
1	1629	9711
1	1631	9712
1	1647	9713
1	1668	9714
1	1698	9715
1	1716	9716
1	1733	9717
1	1751	9718
1	1764	9719
1	1786	9680
1	1789	9681
1	1795	9682
1	1803	9683
1	1813	9684
1	1823	9685
1	1820	9686
1	1815	9687
1	1795	9688
1	1775	9689
1	1751	9690
1	1729	9691
1	1712	9692
1	1697	9693
1	1693	9694
1	1697	9695
1	1699	9696
1	1708	9697
1	1713	9698
1	1716	9699
1	1775	9720
1	1779	9721
1	1778	9722
1	1777	9723
1	1772	9724
1	1769	9725
1	1764	9726
1	1767	9727
1	1766	9728
1	1764	9729
1	1756	9730
1	1751	9731
1	1746	9732
1	1743	9733
1	1749	9734
1	1747	9735
1	1751	9736
1	1756	9737
1	1761	9738
1	1760	9739
1	1764	9740
1	1779	9741
1	1788	9742
1	1792	9743
1	1800	9744
1	1814	9745
1	1817	9746
1	1828	9747
1	1832	9748
1	1842	9749
1	1854	9750
1	1862	9751
1	1869	9752
1	1881	9753
1	1887	9754
1	1881	9755
1	1861	9756
1	1843	9757
1	1827	9758
1	1816	9759
1	1796	9760
1	1793	9761
1	1791	9762
1	1791	9763
1	1789	9764
1	1790	9765
1	1790	9766
1	1791	9767
1	1791	9768
1	1796	9769
1	1802	9770
1	1814	9771
1	1827	9772
1	1845	9773
1	1863	9774
1	1894	9775
1	1916	9776
1	1935	9777
1	1948	9778
1	1946	9779
1	1935	9780
1	1920	9781
1	1896	9782
1	1878	9783
1	1862	9784
1	1847	9785
1	1829	9786
1	1817	9787
1	1800	9788
1	1793	9789
1	1801	9790
1	1801	9791
1	1808	9792
1	1801	9793
1	1801	9794
1	1808	9795
1	1817	9796
1	1829	9797
1	1843	9798
1	1856	9799
1	1868	9800
1	1863	9801
1	1857	9802
1	1852	9803
1	1843	9804
1	1843	9805
1	1839	9806
1	1837	9807
1	1834	9808
1	1830	9809
1	1823	9810
1	1817	9811
1	1812	9812
1	1793	9813
1	1787	9814
1	1775	9815
1	1764	9816
1	1757	9817
1	1762	9818
1	1766	9819
1	1780	9820
1	1787	9821
1	1789	9822
1	1786	9823
1	1787	9824
1	1778	9825
1	1767	9826
1	1751	9827
1	1738	9828
1	1724	9829
1	1707	9830
1	1686	9831
1	1669	9832
1	1657	9833
1	1644	9834
1	1634	9835
1	1633	9836
1	1628	9837
1	1643	9838
1	1650	9839
1	1661	9840
1	1665	9841
1	1670	9842
1	1675	9843
1	1681	9844
1	1685	9845
1	1675	9846
1	1660	9847
1	1642	9848
1	1620	9849
1	1602	9850
1	1585	9851
1	1575	9852
1	1571	9853
1	1566	9854
1	1556	9855
1	1548	9856
1	1550	9857
1	1562	9858
1	1578	9859
1	1593	9860
1	1602	9861
1	1607	9862
1	1614	9863
1	1612	9864
1	1616	9865
1	1607	9866
1	1594	9867
1	1581	9868
1	1564	9869
1	1553	9870
1	1543	9871
1	1541	9872
1	1539	9873
1	1542	9874
1	1544	9875
1	1543	9876
1	1548	9877
1	1556	9878
1	1566	9879
1	1585	9880
1	1596	9881
1	1607	9882
1	1609	9883
1	1611	9884
1	1608	9885
1	1598	9886
1	1581	9887
1	1558	9888
1	1541	9889
1	1529	9890
1	1524	9891
1	1529	9892
1	1544	9893
1	1562	9894
1	1589	9895
1	1603	9896
1	1610	9897
1	1615	9898
1	1612	9899
1	1615	9900
1	1611	9901
1	1607	9902
1	1599	9903
1	1587	9904
1	1579	9905
1	1559	9906
1	1548	9907
1	1543	9908
1	1539	9909
1	1542	9910
1	1543	9911
1	1541	9912
1	1536	9913
1	1535	9914
1	1537	9915
1	1546	9916
1	1556	9917
1	1568	9918
1	1579	9919
1	1584	9920
1	1581	9921
1	1582	9922
1	1584	9923
1	1586	9924
1	1595	9925
1	1602	9926
1	1596	9927
1	1584	9928
1	1572	9929
1	1564	9930
1	1542	9931
1	1521	9932
1	1503	9933
1	1494	9934
1	1494	9935
1	1497	9936
1	1506	9937
1	1521	9938
1	1533	9939
1	1554	9940
1	1580	9941
1	1584	9942
1	1600	9943
1	1610	9944
1	1629	9945
1	1634	9946
1	1642	9947
1	1638	9948
1	1626	9949
1	1611	9950
1	1596	9951
1	1585	9952
1	1581	9953
1	1579	9954
1	1581	9955
1	1598	9956
1	1608	9957
1	1623	9958
1	1633	9959
1	1636	9960
1	1643	9961
1	1644	9962
1	1644	9963
1	1641	9964
1	1638	9965
1	1630	9966
1	1616	9967
1	1603	9968
1	1584	9969
1	1564	9970
1	1539	9971
1	1518	9972
1	1506	9973
1	1503	9974
1	1511	9975
1	1524	9976
1	1541	9977
1	1558	9978
1	1581	9979
1	1602	9980
1	1607	9981
1	1618	9982
1	1625	9983
1	1625	9984
1	1628	9985
1	1612	9986
1	1599	9987
1	1593	9988
1	1592	9989
1	1597	9990
1	1607	9991
1	1619	9992
1	1634	9993
1	1644	9994
1	1656	9995
1	1660	9996
1	1667	9997
1	1677	9998
1	1679	9999
1	1686	10000
1	1685	10001
1	1682	10002
1	1674	10003
1	1660	10004
1	1651	10005
1	1643	10006
1	1634	10007
1	1626	10008
1	1622	10009
1	1613	10010
1	1595	10011
1	1583	10012
1	1575	10013
1	1571	10014
1	1575	10015
1	1575	10016
1	1581	10017
1	1596	10018
1	1618	10019
1	1647	10020
1	1677	10021
1	1697	10022
1	1701	10023
1	1692	10024
1	1674	10025
1	1652	10026
1	1634	10027
1	1618	10028
1	1600	10029
1	1594	10030
1	1585	10031
1	1575	10032
1	1574	10033
1	1582	10034
1	1591	10035
1	1599	10036
1	1612	10037
1	1620	10038
1	1626	10039
1	1625	10040
1	1618	10041
1	1613	10042
1	1607	10043
1	1602	10044
1	1597	10045
1	1593	10046
1	1579	10047
1	1572	10048
1	1566	10049
1	1566	10050
1	1562	10051
1	1558	10052
1	1557	10053
1	1562	10054
1	1569	10055
1	1569	10056
1	1572	10057
1	1581	10058
1	1594	10059
1	1611	10060
1	1638	10061
1	1652	10062
1	1660	10063
1	1652	10064
1	1638	10065
1	1618	10066
1	1605	10067
1	1594	10068
1	1585	10069
1	1582	10070
1	1574	10071
1	1570	10072
1	1579	10073
1	1589	10074
1	1598	10075
1	1607	10076
1	1612	10077
1	1625	10078
1	1636	10079
1	1651	10080
1	1659	10081
1	1668	10082
1	1680	10083
1	1686	10084
1	1686	10085
1	1674	10086
1	1664	10087
1	1660	10088
1	1660	10089
1	1659	10090
1	1647	10091
1	1634	10092
