#Date:= 2024-10-08T15:48:15.023990
#Sampling Rate(Hz):= 1000
#Labels:= LOD	ECG	TS
0	1556	20
0	1557	21
0	1555	22
0	1554	23
0	1555	24
0	1555	25
0	1554	26
0	1555	27
0	1551	28
0	1554	29
0	1564	30
0	1557	31
0	1551	32
0	1537	33
0	1512	34
0	1481	35
0	1458	36
0	1436	37
0	3130	38
0	3130	39
1	3130	40
1	3130	41
1	3130	42
1	3130	43
1	3130	44
1	3130	45
1	3130	46
1	3130	47
1	3130	48
1	3130	49
1	3130	50
1	3130	51
1	3130	52
1	3130	53
1	3130	54
1	3130	55
1	3130	56
1	3130	57
1	3130	58
1	3130	59
1	1643	100
1	1654	101
1	1661	102
1	1672	103
1	1681	104
1	1686	105
1	1688	106
1	1686	107
1	1686	108
1	1686	109
1	1686	110
1	1692	111
1	1690	112
1	1688	113
1	1686	114
1	1686	115
1	1686	116
1	1685	117
1	1685	118
1	1685	119
1	3130	80
1	3130	81
1	3130	82
1	3130	83
1	3130	84
1	3130	85
1	3130	86
1	3130	87
1	3130	88
1	3130	89
1	3130	90
1	3130	91
1	3130	92
1	3130	93
1	3130	94
1	3130	95
1	3130	96
1	3130	97
1	3130	98
1	3130	99
1	3130	80
1	3130	81
1	2996	82
1	2806	83
1	2621	84
1	2443	85
1	2262	86
1	2105	87
1	1974	88
1	1867	89
1	1776	90
1	1712	91
1	1660	92
1	1629	93
1	1607	94
1	1602	95
1	1607	96
1	1611	97
1	1620	98
1	1631	99
1	1686	120
1	1686	121
1	1681	122
1	1682	123
1	1682	124
1	1683	125
1	1682	126
1	1686	127
1	1685	128
1	1685	129
1	1683	130
1	1682	131
1	1681	132
1	1679	133
1	1678	134
1	1678	135
1	1677	136
1	1672	137
1	1674	138
1	1674	139
1	1677	140
1	1679	141
1	1680	142
1	1680	143
1	1686	144
1	1686	145
1	1680	146
1	1677	147
1	1675	148
1	1674	149
1	1673	150
1	1672	151
1	1671	152
1	1669	153
1	1670	154
1	1670	155
1	1670	156
1	1670	157
1	1678	158
1	1677	159
1	1678	160
1	1678	161
1	1679	162
1	1680	163
1	1679	164
1	1679	165
1	1679	166
1	1672	167
1	1670	168
1	1670	169
1	1670	170
1	1678	171
1	1675	172
1	1674	173
1	1675	174
1	1674	175
1	1673	176
1	1674	177
1	1674	178
1	1674	179
1	1676	180
1	1677	181
1	1670	182
1	1670	183
1	1670	184
1	1670	185
1	1680	186
1	1676	187
1	1675	188
1	1675	189
1	1675	190
1	1674	191
1	1673	192
1	1673	193
1	1674	194
1	1672	195
1	1671	196
1	1665	197
1	1665	198
1	1665	199
1	1665	200
1	1675	201
1	1674	202
1	1672	203
1	1675	204
1	1673	205
1	1674	206
1	1674	207
1	1668	208
1	1650	209
1	1625	210
1	1591	211
1	1535	212
1	1472	213
1	1392	214
1	1286	215
1	1176	216
1	1048	217
1	932	218
1	838	219
1	761	220
1	692	221
1	634	222
1	586	223
1	544	224
1	521	225
1	508	226
1	499	227
1	497	228
1	494	229
1	481	230
1	455	231
1	423	232
1	375	233
1	323	234
1	272	235
1	225	236
1	193	237
1	166	238
1	143	239
1	134	240
1	134	241
1	151	242
1	172	243
1	198	244
1	224	245
1	253	246
1	289	247
1	324	248
1	360	249
1	390	250
1	409	251
1	427	252
1	450	253
1	483	254
1	532	255
1	598	256
1	665	257
1	721	258
1	769	259
1	812	260
1	848	261
1	869	262
1	891	263
1	915	264
1	949	265
1	987	266
1	1024	267
1	1058	268
1	1086	269
1	1112	270
1	1128	271
1	1127	272
1	1110	273
1	1083	274
1	1047	275
1	1017	276
1	977	277
1	939	278
1	914	279
1	896	280
1	880	281
1	877	282
1	880	283
1	887	284
1	898	285
1	903	286
1	912	287
1	924	288
1	927	289
1	926	290
1	922	291
1	900	292
1	872	293
1	837	294
1	799	295
1	754	296
1	704	297
1	657	298
1	627	299
1	616	300
1	618	301
1	630	302
1	639	303
1	652	304
1	665	305
1	689	306
1	698	307
1	710	308
1	713	309
1	706	310
1	698	311
1	693	312
1	695	313
1	712	314
1	742	315
1	769	316
1	805	317
1	835	318
1	856	319
1	874	320
1	893	321
1	899	322
1	893	323
1	888	324
1	884	325
1	878	326
1	878	327
1	873	328
1	866	329
1	860	330
1	857	331
1	857	332
1	861	333
1	866	334
1	874	335
1	880	336
1	890	337
1	896	338
1	904	339
1	961	360
1	962	361
1	978	362
1	1003	363
1	1035	364
1	1075	365
1	1118	366
1	1148	367
1	1173	368
1	1189	369
1	1196	370
1	1190	371
1	1173	372
1	1150	373
1	1129	374
1	1110	375
1	1098	376
1	1084	377
1	1076	378
1	1062	379
1	1041	380
1	1019	381
1	990	382
1	970	383
1	949	384
1	937	385
1	928	386
1	927	387
1	935	388
1	952	389
1	962	390
1	970	391
1	961	392
1	953	393
1	944	394
1	932	395
1	934	396
1	927	397
1	924	398
1	915	399
1	926	340
1	950	341
1	977	342
1	1004	343
1	1023	344
1	1039	345
1	1049	346
1	1061	347
1	1078	348
1	1093	349
1	1108	350
1	1114	351
1	1109	352
1	1084	353
1	1053	354
1	1019	355
1	1000	356
1	983	357
1	979	358
1	971	359
1	905	400
1	895	401
1	880	402
1	874	403
1	878	404
1	893	405
1	918	406
1	944	407
1	981	408
1	1014	409
1	1036	410
1	1058	411
1	1068	412
1	1078	413
1	1089	414
1	1105	415
1	1114	416
1	1124	417
1	1127	418
1	1124	419
1	1119	420
1	1119	421
1	1107	422
1	1091	423
1	1075	424
1	1061	425
1	1057	426
1	1060	427
1	1071	428
1	1093	429
1	1121	430
1	1155	431
1	1186	432
1	1209	433
1	1219	434
1	1216	435
1	1215	436
1	1219	437
1	1228	438
1	1241	439
1	1263	440
1	1284	441
1	1309	442
1	1332	443
1	1369	444
1	1412	445
1	1451	446
1	1503	447
1	1544	448
1	1579	449
1	1607	450
1	1647	451
1	1688	452
1	1738	453
1	1790	454
1	1841	455
1	1890	456
1	1931	457
1	1974	458
1	2000	459
1	2021	460
1	2040	461
1	2057	462
1	2077	463
1	2105	464
1	2140	465
1	2176	466
1	2210	467
1	2262	468
1	2314	469
1	2364	470
1	2418	471
1	2475	472
1	2523	473
1	2579	474
1	2637	475
1	2691	476
1	2738	477
1	2779	478
1	2819	479
1	2856	480
1	2893	481
1	2939	482
1	2978	483
1	3019	484
1	3064	485
1	3116	486
1	3130	487
1	3130	488
1	3130	489
1	3130	490
1	3130	491
1	3130	492
1	3130	493
1	3130	494
1	3130	495
1	3130	496
1	3130	497
1	3130	498
1	3130	499
1	3130	500
1	3130	501
1	3130	502
1	3130	503
1	3130	504
1	3130	505
1	3130	506
1	3130	507
1	3130	508
1	3130	509
1	3130	510
1	3130	511
1	3130	512
1	3130	513
1	3130	514
1	3130	515
1	3130	516
1	3130	517
1	3130	518
1	3130	519
1	3130	520
1	3130	521
1	3130	522
1	3130	523
1	3130	524
1	3130	525
1	3130	526
1	3130	527
1	3130	528
1	3130	529
1	3130	530
1	3130	531
1	3130	532
1	3130	533
1	3130	534
1	3130	535
1	3130	536
1	3130	537
1	3130	538
1	3130	539
1	3130	540
1	3130	541
1	3130	542
1	3130	543
1	3130	544
1	3130	545
1	3130	546
1	3130	547
1	3130	548
1	3130	549
1	3130	550
1	3130	551
1	3130	552
1	3130	553
1	3130	554
1	3130	555
1	3130	556
1	3130	557
1	3130	558
1	3130	559
1	3130	560
1	3130	561
1	3130	562
1	3130	563
1	3130	564
1	3130	565
1	3130	566
1	3130	567
1	3130	568
1	3130	569
1	3130	570
1	3130	571
1	3130	572
1	3130	573
1	3130	574
1	3130	575
1	3130	576
1	3130	577
1	3130	578
1	3130	579
1	3130	580
1	3130	581
1	3130	582
1	3130	583
1	3130	584
1	3130	585
1	3130	586
1	3130	587
1	3130	588
1	3130	589
1	3130	590
1	3130	591
1	3130	592
1	3130	593
1	3130	594
1	3130	595
1	3130	596
1	3130	597
1	3130	598
1	3130	599
1	3130	600
1	3130	601
1	3130	602
1	3130	603
1	3130	604
1	3130	605
1	3130	606
1	3130	607
1	3130	608
1	3130	609
1	3130	610
1	3130	611
1	3130	612
1	3130	613
1	3130	614
1	3130	615
1	3130	616
1	3130	617
1	3130	618
1	3130	619
1	3130	620
1	3130	621
1	3130	622
1	3130	623
1	3130	624
1	3130	625
1	3130	626
1	3130	627
1	3130	628
1	3130	629
1	3130	630
1	3130	631
1	3130	632
1	3130	633
1	3130	634
1	3130	635
1	3130	636
1	3130	637
1	3130	638
1	3130	639
1	3130	640
1	3130	641
1	3130	642
1	3130	643
1	3130	644
1	3130	645
1	3130	646
1	3130	647
1	3130	648
1	3130	649
1	3130	650
1	3130	651
1	3130	652
1	3130	653
1	3130	654
1	3130	655
1	3130	656
1	3130	657
1	3130	658
1	3130	659
1	3130	660
1	3130	661
1	3130	662
1	3130	663
1	3130	664
1	3130	665
1	3130	666
1	3130	667
1	3130	668
1	3130	669
1	3130	670
1	3130	671
1	3130	672
1	3130	673
1	3130	674
1	3130	675
1	3130	676
1	3130	677
1	3130	678
1	3130	679
1	128	700
1	128	701
1	128	702
1	128	703
1	128	704
1	128	705
1	128	706
1	128	707
1	128	708
1	128	709
1	128	710
1	128	711
1	128	712
1	128	713
1	128	714
1	128	715
1	128	716
1	128	717
1	128	718
1	128	719
1	3130	680
1	3130	681
1	3130	682
1	3030	683
1	2853	684
1	2674	685
1	2503	686
1	2314	687
1	2131	688
1	1962	689
1	1791	690
1	1620	691
1	1441	692
1	1266	693
1	1095	694
1	916	695
1	742	696
1	573	697
1	403	698
1	234	699
1	128	720
1	128	721
1	128	722
1	128	723
1	128	724
1	128	725
1	128	726
1	128	727
1	128	728
1	128	729
1	128	730
1	128	731
1	128	732
1	128	733
1	128	734
1	128	735
1	128	736
1	128	737
1	128	738
1	128	739
1	128	740
1	128	741
1	128	742
1	128	743
1	128	744
1	128	745
1	128	746
1	128	747
1	128	748
1	128	749
1	128	750
1	128	751
1	128	752
1	128	753
1	128	754
1	128	755
1	128	756
1	128	757
1	128	758
1	128	759
1	128	760
1	128	761
1	128	762
1	128	763
1	128	764
1	128	765
1	128	766
1	128	767
1	128	768
1	128	769
1	128	770
1	128	771
1	128	772
1	128	773
1	128	774
1	128	775
1	128	776
1	128	777
1	128	778
1	128	779
1	128	780
1	128	781
1	128	782
1	128	783
1	128	784
1	128	785
1	128	786
1	128	787
1	128	788
1	128	789
1	128	790
1	128	791
1	128	792
1	128	793
1	128	794
1	128	795
1	128	796
1	128	797
1	128	798
1	128	799
1	128	800
1	128	801
1	128	802
1	128	803
1	128	804
1	128	805
1	128	806
1	128	807
1	128	808
1	128	809
1	128	810
1	128	811
1	128	812
1	128	813
1	128	814
1	128	815
1	128	816
1	128	817
1	128	818
1	128	819
1	128	820
1	128	821
1	128	822
1	128	823
1	128	824
1	128	825
1	128	826
1	128	827
1	128	828
1	128	829
1	128	830
1	128	831
1	128	832
1	128	833
1	128	834
1	128	835
1	128	836
1	128	837
1	128	838
1	128	839
1	128	840
1	128	841
1	128	842
1	128	843
1	128	844
1	128	845
1	128	846
1	128	847
1	128	848
1	128	849
1	128	850
1	128	851
1	128	852
1	128	853
1	128	854
1	128	855
1	128	856
1	128	857
1	128	858
1	128	859
1	128	860
1	128	861
1	128	862
1	128	863
1	128	864
1	128	865
1	128	866
1	128	867
1	128	868
1	128	869
1	128	870
1	128	871
1	128	872
1	128	873
1	128	874
1	128	875
1	128	876
1	128	877
1	128	878
1	128	879
1	128	880
1	128	881
1	128	882
1	128	883
1	128	884
1	128	885
1	128	886
1	128	887
1	128	888
1	128	889
1	128	890
1	128	891
1	128	892
1	128	893
1	128	894
1	128	895
1	128	896
1	128	897
1	128	898
1	128	899
1	128	900
1	128	901
1	128	902
1	128	903
1	128	904
1	128	905
1	128	906
1	128	907
1	128	908
1	128	909
1	128	910
1	128	911
1	128	912
1	128	913
1	128	914
1	128	915
1	128	916
1	128	917
1	128	918
1	128	919
1	128	920
1	128	921
1	128	922
1	128	923
1	128	924
1	128	925
1	128	926
1	128	927
1	128	928
1	128	929
1	128	930
1	128	931
1	128	932
1	128	933
1	128	934
1	128	935
1	128	936
1	128	937
1	128	938
1	128	939
1	128	960
1	128	961
1	128	962
1	128	963
1	128	964
1	128	965
1	128	966
1	128	967
1	128	968
1	128	969
1	128	970
1	128	971
1	128	972
1	128	973
1	128	974
1	128	975
1	128	976
1	128	977
1	128	978
1	128	979
1	128	1000
1	128	1001
1	128	1002
1	128	1003
1	128	1004
1	128	1005
1	128	1006
1	128	1007
1	128	1008
1	128	1009
1	128	1010
1	128	1011
1	128	1012
1	128	1013
1	128	1014
1	128	1015
1	128	1016
1	128	1017
1	128	1018
1	128	1019
1	128	940
1	128	941
1	128	942
1	128	943
1	128	944
1	128	945
1	128	946
1	128	947
1	128	948
1	128	949
1	128	950
1	128	951
1	128	952
1	128	953
1	128	954
1	128	955
1	128	956
1	128	957
1	128	958
1	128	959
1	128	980
1	128	981
1	128	982
1	128	983
1	128	984
1	128	985
1	128	986
1	128	987
1	128	988
1	128	989
1	128	990
1	128	991
1	128	992
1	128	993
1	128	994
1	128	995
1	128	996
1	128	997
1	128	998
1	128	999
1	128	1020
1	128	1021
1	128	1022
1	128	1023
1	128	1024
1	128	1025
1	128	1026
1	128	1027
1	128	1028
1	128	1029
1	128	1030
1	128	1031
1	128	1032
1	128	1033
1	128	1034
1	128	1035
1	128	1036
1	128	1037
1	128	1038
1	128	1039
1	128	1040
1	128	1041
1	128	1042
1	128	1043
1	128	1044
1	128	1045
1	128	1046
1	128	1047
1	128	1048
1	128	1049
1	128	1050
1	128	1051
1	128	1052
1	128	1053
1	128	1054
1	128	1055
1	128	1056
1	128	1057
1	128	1058
1	128	1059
1	128	1060
1	128	1061
1	128	1062
1	128	1063
1	128	1064
1	128	1065
1	128	1066
1	128	1067
1	128	1068
1	128	1069
1	128	1070
1	128	1071
1	128	1072
1	128	1073
1	128	1074
1	128	1075
1	128	1076
1	128	1077
1	128	1078
1	128	1079
1	128	1080
1	128	1081
1	128	1082
1	128	1083
1	128	1084
1	128	1085
1	128	1086
1	128	1087
1	128	1088
1	128	1089
1	128	1090
1	128	1091
1	128	1092
1	128	1093
1	128	1094
1	128	1095
1	128	1096
1	128	1097
1	128	1098
1	128	1099
1	128	1100
1	128	1101
1	128	1102
1	128	1103
1	128	1104
1	128	1105
1	128	1106
1	128	1107
1	128	1108
1	128	1109
1	128	1110
1	128	1111
1	128	1112
1	128	1113
1	128	1114
1	128	1115
1	128	1116
1	128	1117
1	128	1118
1	128	1119
1	128	1120
1	128	1121
1	128	1122
1	128	1123
1	128	1124
1	128	1125
1	128	1126
1	128	1127
1	128	1128
1	128	1129
1	128	1130
1	128	1131
1	128	1132
1	128	1133
1	128	1134
1	128	1135
1	128	1136
1	128	1137
1	128	1138
1	128	1139
1	128	1140
1	128	1141
1	128	1142
1	128	1143
1	128	1144
1	128	1145
1	128	1146
1	128	1147
1	128	1148
1	128	1149
1	128	1150
1	128	1151
1	128	1152
1	128	1153
1	128	1154
1	128	1155
1	128	1156
1	128	1157
1	128	1158
1	128	1159
1	128	1160
1	128	1161
1	128	1162
1	128	1163
1	128	1164
1	128	1165
1	128	1166
1	128	1167
1	128	1168
1	128	1169
1	128	1170
1	128	1171
1	128	1172
1	128	1173
1	128	1174
1	128	1175
1	128	1176
1	128	1177
1	128	1178
1	128	1179
1	128	1180
1	128	1181
1	128	1182
1	128	1183
1	128	1184
1	128	1185
1	128	1186
1	128	1187
1	128	1188
1	128	1189
1	128	1190
1	128	1191
1	128	1192
1	128	1193
1	128	1194
1	128	1195
1	128	1196
1	128	1197
1	128	1198
1	128	1199
1	128	1200
1	128	1201
1	128	1202
1	128	1203
1	128	1204
1	128	1205
1	128	1206
1	128	1207
1	128	1208
1	128	1209
1	128	1210
1	128	1211
1	128	1212
1	128	1213
1	128	1214
1	128	1215
1	128	1216
1	128	1217
1	128	1218
1	128	1219
1	128	1220
1	128	1221
1	128	1222
1	128	1223
1	128	1224
1	128	1225
1	128	1226
1	128	1227
1	128	1228
1	128	1229
1	128	1230
1	128	1231
1	128	1232
1	128	1233
1	128	1234
1	128	1235
1	128	1236
1	128	1237
1	128	1238
1	128	1239
1	128	1260
1	128	1261
1	128	1262
1	128	1263
1	128	1264
1	128	1265
1	171	1266
1	252	1267
1	328	1268
1	407	1269
1	495	1270
1	589	1271
1	666	1272
1	742	1273
1	819	1274
1	891	1275
1	961	1276
1	1022	1277
1	1058	1278
1	1074	1279
1	128	1240
1	128	1241
1	128	1242
1	128	1243
1	128	1244
1	128	1245
1	128	1246
1	128	1247
1	128	1248
1	128	1249
1	128	1250
1	128	1251
1	128	1252
1	128	1253
1	128	1254
1	128	1255
1	128	1256
1	128	1257
1	128	1258
1	128	1259
1	1084	1280
1	1096	1281
1	1114	1282
1	1121	1283
1	1118	1284
1	1118	1285
1	1123	1286
1	1139	1287
1	1174	1288
1	1211	1289
1	1241	1290
1	1273	1291
1	1299	1292
1	1325	1293
1	1358	1294
1	1398	1295
1	1437	1296
1	1485	1297
1	1528	1298
1	1563	1299
1	1593	1300
1	1610	1301
1	1611	1302
1	1603	1303
1	1595	1304
1	1596	1305
1	1598	1306
1	1607	1307
1	1629	1308
1	1660	1309
1	1710	1310
1	1763	1311
1	1817	1312
1	1853	1313
1	1881	1314
1	1910	1315
1	1936	1316
1	1963	1317
1	1983	1318
1	1998	1319
1	2012	1320
1	2016	1321
1	1996	1322
1	1969	1323
1	1945	1324
1	1926	1325
1	1927	1326
1	1953	1327
1	1978	1328
1	2009	1329
1	2045	1330
1	2087	1331
1	2132	1332
1	2181	1333
1	2234	1334
1	2276	1335
1	2315	1336
1	2341	1337
1	2359	1338
1	2366	1339
1	2623	1360
1	2620	1361
1	2607	1362
1	2605	1363
1	2619	1364
1	2640	1365
1	2664	1366
1	2688	1367
1	2706	1368
1	2717	1369
1	2724	1370
1	2730	1371
1	2742	1372
1	2758	1373
1	2778	1374
1	2802	1375
1	2824	1376
1	2836	1377
1	2845	1378
1	2847	1379
1	2366	1340
1	2362	1341
1	2359	1342
1	2350	1343
1	2327	1344
1	2318	1345
1	2296	1346
1	2290	1347
1	2278	1348
1	2282	1349
1	2299	1350
1	2329	1351
1	2368	1352
1	2419	1353
1	2471	1354
1	2515	1355
1	2559	1356
1	2593	1357
1	2620	1358
1	2624	1359
1	3113	1400
1	3130	1401
1	3130	1402
1	3130	1403
1	3130	1404
1	3130	1405
1	3130	1406
1	3130	1407
1	3130	1408
1	3130	1409
1	3130	1410
1	3130	1411
1	3130	1412
1	3130	1413
1	3130	1414
1	3130	1415
1	3130	1416
1	3130	1417
1	3130	1418
1	3130	1419
1	2854	1380
1	2869	1381
1	2886	1382
1	2900	1383
1	2917	1384
1	2931	1385
1	2949	1386
1	2968	1387
1	2999	1388
1	3027	1389
1	3046	1390
1	3052	1391
1	3058	1392
1	3067	1393
1	3078	1394
1	3087	1395
1	3098	1396
1	3105	1397
1	3104	1398
1	3108	1399
1	3130	1440
1	3130	1441
1	3130	1442
1	3130	1443
1	3130	1444
1	3130	1445
1	3130	1446
1	3130	1447
1	3130	1448
1	3130	1449
1	3130	1450
1	3130	1451
1	3130	1452
1	3130	1453
1	3130	1454
1	3130	1455
1	3130	1456
1	3130	1457
1	3130	1458
1	3130	1459
1	3130	1440
1	3130	1441
1	3130	1442
1	3130	1443
1	3130	1444
1	3130	1445
1	3130	1446
1	3130	1447
1	3130	1448
1	3130	1449
1	3130	1450
1	3130	1451
1	3130	1452
1	3130	1453
1	3130	1454
1	3130	1455
1	3130	1456
1	3130	1457
1	3130	1458
1	3130	1459
1	3130	1480
1	3130	1481
1	3130	1482
1	3130	1483
1	3130	1484
1	3130	1485
1	3130	1486
1	3130	1487
1	3130	1488
1	3130	1489
1	3130	1490
1	3130	1491
1	3130	1492
1	3130	1493
1	3130	1494
1	3130	1495
1	3130	1496
1	3130	1497
1	3130	1498
1	3130	1499
1	3130	1500
1	3130	1501
1	3130	1502
1	3130	1503
1	3130	1504
1	3130	1505
1	3130	1506
1	3130	1507
1	3130	1508
1	3130	1509
1	3130	1510
1	3130	1511
1	3130	1512
1	3130	1513
1	3130	1514
1	3130	1515
1	3130	1516
1	3130	1517
1	3130	1518
1	3130	1519
1	3130	1460
1	3130	1461
1	3130	1462
1	3130	1463
1	3130	1464
1	3130	1465
1	3130	1466
1	3130	1467
1	3130	1468
1	3130	1469
1	3130	1470
1	3130	1471
1	3130	1472
1	3130	1473
1	3130	1474
1	3130	1475
1	3130	1476
1	3130	1477
1	3130	1478
1	3130	1479
1	3130	1520
1	3130	1521
1	3130	1522
1	3130	1523
1	3130	1524
1	3130	1525
1	3130	1526
1	3130	1527
1	3130	1528
1	3130	1529
1	3130	1530
1	3130	1531
1	3130	1532
1	3130	1533
1	3130	1534
1	3130	1535
1	3130	1536
1	3130	1537
1	3130	1538
1	3130	1539
1	3130	1540
1	3130	1541
1	3130	1542
1	3130	1543
1	3130	1544
1	3130	1545
1	3130	1546
1	3130	1547
1	3130	1548
1	3130	1549
1	3130	1550
1	3130	1551
1	3130	1552
1	3130	1553
1	3130	1554
1	3130	1555
1	3130	1556
1	3130	1557
1	3130	1558
1	3130	1559
1	3130	1560
1	3130	1561
1	3130	1562
1	3130	1563
1	3130	1564
1	3130	1565
1	3130	1566
1	3130	1567
1	3130	1568
1	3130	1569
1	3130	1570
1	3130	1571
1	3130	1572
1	3130	1573
1	3130	1574
1	3130	1575
1	3130	1576
1	3130	1577
1	3130	1578
1	3130	1579
1	3130	1580
1	3130	1581
1	3130	1582
1	3130	1583
1	3130	1584
1	3130	1585
1	3130	1586
1	3130	1587
1	3130	1588
1	3130	1589
1	3130	1590
1	3130	1591
1	3130	1592
1	3130	1593
1	3130	1594
1	3130	1595
1	3130	1596
1	3130	1597
1	3130	1598
1	3130	1599
1	3130	1600
1	3130	1601
1	3130	1602
1	3130	1603
1	3130	1604
1	3130	1605
1	3130	1606
1	3130	1607
1	3130	1608
1	3130	1609
1	3130	1610
1	3130	1611
1	3130	1612
1	3130	1613
1	3130	1614
1	3130	1615
1	3130	1616
1	3130	1617
1	3130	1618
1	3130	1619
1	3130	1620
1	3130	1621
1	3130	1622
1	3130	1623
1	3130	1624
1	3130	1625
1	3130	1626
1	3130	1627
1	3130	1628
1	3130	1629
1	3130	1630
1	3130	1631
1	3130	1632
1	3130	1633
1	3130	1634
1	3130	1635
1	3130	1636
1	3130	1637
1	3130	1638
1	3130	1639
1	3130	1640
1	3130	1641
1	3130	1642
1	3130	1643
1	3130	1644
1	3130	1645
1	3130	1646
1	3130	1647
1	3130	1648
1	3130	1649
1	3130	1650
1	3130	1651
1	3130	1652
1	3130	1653
1	3130	1654
1	3130	1655
1	3130	1656
1	3130	1657
1	3130	1658
1	3130	1659
1	3130	1660
1	3130	1661
1	3130	1662
1	3130	1663
1	3130	1664
1	3130	1665
1	3130	1666
1	3130	1667
1	3130	1668
1	3130	1669
1	3130	1670
1	3130	1671
1	3130	1672
1	3130	1673
1	3130	1674
1	3130	1675
1	3130	1676
1	3130	1677
1	3130	1678
1	3130	1679
1	3130	1680
1	3130	1681
1	3130	1682
1	3130	1683
1	3130	1684
1	3130	1685
1	3130	1686
1	3130	1687
1	3130	1688
1	3130	1689
1	3130	1690
1	3130	1691
1	3130	1692
1	3130	1693
1	3130	1694
1	3130	1695
1	3130	1696
1	3130	1697
1	3130	1698
1	3130	1699
1	3130	1700
1	3130	1701
1	3130	1702
1	3130	1703
1	3130	1704
1	3130	1705
1	3130	1706
1	3130	1707
1	3130	1708
1	3130	1709
1	3130	1710
1	3130	1711
1	3130	1712
1	3130	1713
1	3130	1714
1	3130	1715
1	3130	1716
1	3130	1717
1	3130	1718
1	3130	1719
1	3130	1720
1	3130	1721
1	3130	1722
1	3130	1723
1	3130	1724
1	3130	1725
1	3130	1726
1	3130	1727
1	3130	1728
1	3130	1729
1	3130	1730
1	3130	1731
1	3130	1732
1	3130	1733
1	3130	1734
1	3130	1735
1	3130	1736
1	3130	1737
1	3130	1738
1	3130	1739
1	3130	1760
1	3130	1761
1	3130	1762
1	3130	1763
1	3130	1764
1	3130	1765
1	3130	1766
1	3130	1767
1	3130	1768
1	3130	1769
1	3130	1770
1	3130	1771
1	3130	1772
1	3130	1773
1	3130	1774
1	3130	1775
1	3130	1776
1	3130	1777
1	3130	1778
1	3130	1779
1	3130	1740
1	3130	1741
1	3130	1742
1	3130	1743
1	3130	1744
1	3130	1745
1	3130	1746
1	3130	1747
1	3130	1748
1	3130	1749
1	3130	1750
1	3130	1751
1	3130	1752
1	3130	1753
1	3130	1754
1	3130	1755
1	3130	1756
1	3130	1757
1	3130	1758
1	3130	1759
1	3130	1800
1	3130	1801
1	3130	1802
1	3130	1803
1	3130	1804
1	3130	1805
1	3130	1806
1	3130	1807
1	3130	1808
1	3130	1809
1	3130	1810
1	3130	1811
1	3130	1812
1	3130	1813
1	3130	1814
1	3130	1815
1	3130	1816
1	3130	1817
1	3130	1818
1	3130	1819
1	3130	1780
1	3130	1781
1	3130	1782
1	3130	1783
1	3130	1784
1	3130	1785
1	3130	1786
1	3130	1787
1	3130	1788
1	3130	1789
1	3130	1790
1	3130	1791
1	3130	1792
1	3130	1793
1	3130	1794
1	3130	1795
1	3130	1796
1	3130	1797
1	3130	1798
1	3130	1799
1	3130	1820
1	3130	1821
1	3130	1822
1	3130	1823
1	3130	1824
1	3130	1825
1	3116	1826
1	3068	1827
1	3032	1828
1	2997	1829
1	2971	1830
1	2953	1831
1	2945	1832
1	2938	1833
1	2945	1834
1	2952	1835
1	2965	1836
1	2970	1837
1	2980	1838
1	3002	1839
1	3018	1840
1	3045	1841
1	3085	1842
1	3124	1843
1	3130	1844
1	3130	1845
1	3130	1846
1	3130	1847
1	3130	1848
1	3130	1849
1	3130	1850
1	3130	1851
1	3130	1852
1	3130	1853
1	3130	1854
1	3130	1855
1	3130	1856
1	3130	1857
1	3130	1858
1	3130	1859
1	3130	1860
1	3130	1861
1	3130	1862
1	3130	1863
1	3130	1864
1	3130	1865
1	3130	1866
1	3130	1867
1	3130	1868
1	3130	1869
1	3130	1870
1	3130	1871
1	3130	1872
1	3130	1873
1	3130	1874
1	3130	1875
1	3130	1876
1	3130	1877
1	3130	1878
1	3130	1879
1	3130	1880
1	3130	1881
1	3130	1882
1	3130	1883
1	3130	1884
1	3130	1885
1	3130	1886
1	3130	1887
1	3130	1888
1	3130	1889
1	3130	1890
1	3130	1891
1	3130	1892
1	3130	1893
1	3130	1894
1	3130	1895
1	3130	1896
1	3130	1897
1	3130	1898
1	3130	1899
1	3130	1900
1	3130	1901
1	3130	1902
1	3130	1903
1	3130	1904
1	3130	1905
1	3130	1906
1	3130	1907
1	3130	1908
1	3130	1909
1	3130	1910
1	3130	1911
1	3130	1912
1	3130	1913
1	3130	1914
1	3130	1915
1	3130	1916
1	3130	1917
1	3130	1918
1	3130	1919
1	3130	1920
1	3130	1921
1	3130	1922
1	3130	1923
1	3130	1924
1	3130	1925
1	3130	1926
1	3130	1927
1	3130	1928
1	3130	1929
1	3130	1930
1	3130	1931
1	3130	1932
1	3130	1933
1	3130	1934
1	3130	1935
1	3130	1936
1	3130	1937
1	3130	1938
1	3130	1939
1	3130	1960
1	3130	1961
1	3130	1962
1	3130	1963
1	3130	1964
1	3130	1965
1	3130	1966
1	3130	1967
1	3130	1968
1	3130	1969
1	3130	1970
1	3130	1971
1	3130	1972
1	3130	1973
1	3130	1974
1	3130	1975
1	3130	1976
1	3130	1977
1	3130	1978
1	3130	1979
1	3130	1940
1	3130	1941
1	3130	1942
1	3130	1943
1	3130	1944
1	3130	1945
1	3130	1946
1	3130	1947
1	3130	1948
1	3130	1949
1	3130	1950
1	3130	1951
1	3130	1952
1	3130	1953
1	3130	1954
1	3130	1955
1	3130	1956
1	3130	1957
1	3130	1958
1	3130	1959
1	3130	1980
1	3130	1981
1	3130	1982
1	3130	1983
1	3130	1984
1	3130	1985
1	3130	1986
1	3130	1987
1	3130	1988
1	3130	1989
1	3130	1990
1	3130	1991
1	3130	1992
1	3130	1993
1	3130	1994
1	3130	1995
1	3130	1996
1	3130	1997
1	3130	1998
1	3130	1999
1	3130	2000
1	3130	2001
1	3130	2002
1	3130	2003
1	3130	2004
1	3130	2005
1	3130	2006
1	3130	2007
1	3130	2008
1	3130	2009
1	3130	2010
1	3130	2011
1	3130	2012
1	3130	2013
1	3130	2014
1	3130	2015
1	3130	2016
1	3130	2017
1	3130	2018
1	3130	2019
1	3130	2040
1	3130	2041
1	3130	2042
1	3130	2043
1	3130	2044
1	3130	2045
1	3130	2046
1	3130	2047
1	3130	2048
1	3130	2049
1	3130	2050
1	3130	2051
1	3130	2052
1	3130	2053
1	3130	2054
1	3130	2055
1	3130	2056
1	3130	2057
1	3130	2058
1	3130	2059
1	3130	2060
1	3130	2061
1	3130	2062
1	3130	2063
1	3130	2064
1	3130	2065
1	3130	2066
1	3130	2067
1	3130	2068
1	3130	2069
1	3130	2070
1	3130	2071
1	3109	2072
1	3063	2073
1	3021	2074
1	2991	2075
1	2968	2076
1	2938	2077
1	2917	2078
1	2898	2079
1	3130	2020
1	3130	2021
1	3130	2022
1	3130	2023
1	3130	2024
1	3130	2025
1	3130	2026
1	3130	2027
1	3130	2028
1	3130	2029
1	3130	2030
1	3130	2031
1	3130	2032
1	3130	2033
1	3130	2034
1	3130	2035
1	3130	2036
1	3130	2037
1	3130	2038
1	3130	2039
1	2888	2080
1	2888	2081
1	2891	2082
1	2893	2083
1	2900	2084
1	2903	2085
1	2903	2086
1	2916	2087
1	2926	2088
1	2939	2089
1	2955	2090
1	2982	2091
1	2997	2092
1	3004	2093
1	3001	2094
1	2980	2095
1	2946	2096
1	2901	2097
1	2851	2098
1	2801	2099
1	2757	2100
1	2719	2101
1	2673	2102
1	2635	2103
1	2596	2104
1	2576	2105
1	2572	2106
1	2585	2107
1	2609	2108
1	2644	2109
1	2672	2110
1	2703	2111
1	2727	2112
1	2745	2113
1	2760	2114
1	2777	2115
1	2801	2116
1	2836	2117
1	2867	2118
1	2885	2119
1	2891	2120
1	2888	2121
1	2866	2122
1	2836	2123
1	2811	2124
1	2790	2125
1	2770	2126
1	2751	2127
1	2735	2128
1	2723	2129
1	2707	2130
1	2700	2131
1	2696	2132
1	2702	2133
1	2716	2134
1	2735	2135
1	2756	2136
1	2770	2137
1	2776	2138
1	2771	2139
1	2761	2140
1	2748	2141
1	2726	2142
1	2703	2143
1	2672	2144
1	2640	2145
1	2611	2146
1	2600	2147
1	2593	2148
1	2594	2149
1	2602	2150
1	2620	2151
1	2635	2152
1	2653	2153
1	2666	2154
1	2683	2155
1	2691	2156
1	2686	2157
1	2681	2158
1	2666	2159
1	2655	2160
1	2644	2161
1	2623	2162
1	2606	2163
1	2589	2164
1	2571	2165
1	2555	2166
1	2545	2167
1	2535	2168
1	2535	2169
1	2551	2170
1	2573	2171
1	2609	2172
1	2654	2173
1	2695	2174
1	2732	2175
1	2758	2176
1	2774	2177
1	2777	2178
1	2765	2179
1	2750	2180
1	2729	2181
1	2703	2182
1	2673	2183
1	2648	2184
1	2629	2185
1	2608	2186
1	2592	2187
1	2582	2188
1	2574	2189
1	2568	2190
1	2566	2191
1	2563	2192
1	2565	2193
1	2559	2194
1	2552	2195
1	2548	2196
1	2554	2197
1	2553	2198
1	2548	2199
1	2538	2200
1	2528	2201
1	2513	2202
1	2496	2203
1	2496	2204
1	2496	2205
1	2505	2206
1	2506	2207
1	2513	2208
1	2521	2209
1	2533	2210
1	2546	2211
1	2563	2212
1	2572	2213
1	2582	2214
1	2599	2215
1	2612	2216
1	2624	2217
1	2631	2218
1	2637	2219
1	2642	2220
1	2644	2221
1	2631	2222
1	2619	2223
1	2592	2224
1	2561	2225
1	2532	2226
1	2515	2227
1	2499	2228
1	2482	2229
1	2462	2230
1	2443	2231
1	2427	2232
1	2422	2233
1	2431	2234
1	2441	2235
1	2453	2236
1	2464	2237
1	2471	2238
1	2477	2239
1	2477	2240
1	2479	2241
1	2485	2242
1	2489	2243
1	2488	2244
1	2488	2245
1	2495	2246
1	2486	2247
1	2484	2248
1	2475	2249
1	2466	2250
1	2456	2251
1	2446	2252
1	2438	2253
1	2435	2254
1	2428	2255
1	2417	2256
1	2390	2257
1	2356	2258
1	2320	2259
1	2288	2260
1	2273	2261
1	2258	2262
1	2250	2263
1	2251	2264
1	2262	2265
1	2288	2266
1	2310	2267
1	2320	2268
1	2336	2269
1	2354	2270
1	2382	2271
1	2419	2272
1	2471	2273
1	2501	2274
1	2517	2275
1	2523	2276
1	2521	2277
1	2520	2278
1	2516	2279
1	2513	2280
1	2508	2281
1	2496	2282
1	2491	2283
1	2481	2284
1	2471	2285
1	2466	2286
1	2461	2287
1	2446	2288
1	2430	2289
1	2405	2290
1	2382	2291
1	2366	2292
1	2350	2293
1	2341	2294
1	2341	2295
1	2345	2296
1	2350	2297
1	2358	2298
1	2367	2299
1	2370	2300
1	2368	2301
1	2369	2302
1	2356	2303
1	2346	2304
1	2341	2305
1	2333	2306
1	2329	2307
1	2328	2308
1	2335	2309
1	2341	2310
1	2353	2311
1	2361	2312
1	2376	2313
1	2393	2314
1	2404	2315
1	2397	2316
1	2390	2317
1	2368	2318
1	2351	2319
1	2228	2340
1	2214	2341
1	2197	2342
1	2181	2343
1	2164	2344
1	2143	2345
1	2129	2346
1	2122	2347
1	2127	2348
1	2136	2349
1	2147	2350
1	2167	2351
1	2178	2352
1	2183	2353
1	2187	2354
1	2188	2355
1	2179	2356
1	2160	2357
1	2148	2358
1	2132	2359
1	2327	2340
1	2300	2341
1	2266	2342
1	2230	2343
1	2183	2344
1	2146	2345
1	2115	2346
1	2084	2347
1	2070	2348
1	2064	2349
1	2055	2350
1	2060	2351
1	2083	2352
1	2111	2353
1	2143	2354
1	2176	2355
1	2201	2356
1	2216	2357
1	2233	2358
1	2232	2359
1	2122	2360
1	2120	2361
1	2132	2362
1	2148	2363
1	2170	2364
1	2195	2365
1	2232	2366
1	2270	2367
1	2312	2368
1	2359	2369
1	2412	2370
1	2473	2371
1	2530	2372
1	2577	2373
1	2639	2374
1	2703	2375
1	2761	2376
1	2803	2377
1	2837	2378
1	2857	2379
1	2868	2380
1	2859	2381
1	2841	2382
1	2808	2383
1	2751	2384
1	2685	2385
1	2602	2386
1	2497	2387
1	2393	2388
1	2270	2389
1	2152	2390
1	2048	2391
1	1960	2392
1	1883	2393
1	1818	2394
1	1764	2395
1	1728	2396
1	1691	2397
1	1659	2398
1	1630	2399
1	1605	2400
1	1580	2401
1	1544	2402
1	1521	2403
1	1493	2404
1	1472	2405
1	1456	2406
1	1451	2407
1	1445	2408
1	1436	2409
1	1422	2410
1	1398	2411
1	1376	2412
1	1371	2413
1	1368	2414
1	1371	2415
1	1378	2416
1	1398	2417
1	1420	2418
1	1442	2419
1	1454	2420
1	1466	2421
1	1485	2422
1	1510	2423
1	1544	2424
1	1587	2425
1	1638	2426
1	1690	2427
1	1737	2428
1	1781	2429
1	1829	2430
1	1875	2431
1	1932	2432
1	1978	2433
1	2026	2434
1	2066	2435
1	2093	2436
1	2113	2437
1	2111	2438
1	2091	2439
1	2079	2440
1	2070	2441
1	2050	2442
1	2037	2443
1	2026	2444
1	2019	2445
1	2014	2446
1	2014	2447
1	2020	2448
1	2026	2449
1	2032	2450
1	2037	2451
1	2040	2452
1	2037	2453
1	2027	2454
1	2013	2455
1	1998	2456
1	1971	2457
1	1948	2458
1	1922	2459
1	1888	2460
1	1857	2461
1	1818	2462
1	1796	2463
1	1787	2464
1	1792	2465
1	1809	2466
1	1836	2467
1	1861	2468
1	1895	2469
1	1932	2470
1	1963	2471
1	1988	2472
1	2009	2473
1	2027	2474
1	2037	2475
1	2039	2476
1	2035	2477
1	2032	2478
1	2026	2479
1	2014	2480
1	2000	2481
1	1993	2482
1	1980	2483
1	1974	2484
1	1971	2485
1	1973	2486
1	1978	2487
1	1983	2488
1	1991	2489
1	2000	2490
1	2016	2491
1	2041	2492
1	2062	2493
1	2079	2494
1	2079	2495
1	2075	2496
1	2066	2497
1	2052	2498
1	2030	2499
1	2009	2500
1	1984	2501
1	1972	2502
1	1962	2503
1	1962	2504
1	1965	2505
1	1960	2506
1	1943	2507
1	1931	2508
1	1924	2509
1	1923	2510
1	1923	2511
1	1934	2512
1	1944	2513
1	1958	2514
1	1975	2515
1	1990	2516
1	2000	2517
1	2001	2518
1	2000	2519
1	1994	2520
1	1986	2521
1	1974	2522
1	1969	2523
1	1970	2524
1	1972	2525
1	1974	2526
1	1979	2527
1	1979	2528
1	1983	2529
1	1993	2530
1	2008	2531
1	2026	2532
1	2048	2533
1	2067	2534
1	2088	2535
1	2102	2536
1	2097	2537
1	2081	2538
1	2058	2539
1	2030	2540
1	2005	2541
1	1980	2542
1	1960	2543
1	1933	2544
1	1908	2545
1	1911	2546
1	1914	2547
1	1926	2548
1	1948	2549
1	1976	2550
1	2012	2551
1	2048	2552
1	2078	2553
1	2097	2554
1	2106	2555
1	2116	2556
1	2120	2557
1	2118	2558
1	2109	2559
1	2117	2580
1	2117	2581
1	2112	2582
1	2112	2583
1	2110	2584
1	2111	2585
1	2116	2586
1	2125	2587
1	2131	2588
1	2133	2589
1	2135	2590
1	2135	2591
1	2142	2592
1	2149	2593
1	2161	2594
1	2176	2595
1	2186	2596
1	2182	2597
1	2171	2598
1	2153	2599
1	2107	2560
1	2101	2561
1	2086	2562
1	2070	2563
1	2057	2564
1	2045	2565
1	2035	2566
1	2031	2567
1	2044	2568
1	2075	2569
1	2106	2570
1	2147	2571
1	2183	2572
1	2201	2573
1	2199	2574
1	2187	2575
1	2174	2576
1	2157	2577
1	2139	2578
1	2123	2579
1	2130	2600
1	2105	2601
1	2079	2602
1	2058	2603
1	2038	2604
1	2022	2605
1	2019	2606
1	2039	2607
1	2069	2608
1	2104	2609
1	2136	2610
1	2170	2611
1	2196	2612
1	2213	2613
1	2231	2614
1	2234	2615
1	2231	2616
1	2237	2617
1	2236	2618
1	2236	2619
1	1985	2640
1	1968	2641
1	1955	2642
1	1946	2643
1	1934	2644
1	1926	2645
1	1921	2646
1	1913	2647
1	1908	2648
1	1910	2649
1	1909	2650
1	1917	2651
1	1916	2652
1	1922	2653
1	1926	2654
1	1931	2655
1	1931	2656
1	1917	2657
1	1913	2658
1	1904	2659
1	2235	2620
1	2221	2621
1	2204	2622
1	2187	2623
1	2175	2624
1	2165	2625
1	2152	2626
1	2131	2627
1	2114	2628
1	2097	2629
1	2089	2630
1	2087	2631
1	2096	2632
1	2097	2633
1	2099	2634
1	2092	2635
1	2079	2636
1	2058	2637
1	2035	2638
1	2011	2639
1	1895	2660
1	1890	2661
1	1886	2662
1	1872	2663
1	1859	2664
1	1842	2665
1	1821	2666
1	1799	2667
1	1777	2668
1	1755	2669
1	1738	2670
1	1728	2671
1	1716	2672
1	1712	2673
1	1712	2674
1	1715	2675
1	1715	2676
1	1726	2677
1	1728	2678
1	1729	2679
1	1718	2700
1	1712	2701
1	1692	2702
1	1679	2703
1	1659	2704
1	1636	2705
1	1621	2706
1	1625	2707
1	1635	2708
1	1655	2709
1	1679	2710
1	1705	2711
1	1735	2712
1	1761	2713
1	1776	2714
1	1787	2715
1	1791	2716
1	1783	2717
1	1785	2718
1	1791	2719
1	1733	2680
1	1733	2681
1	1725	2682
1	1712	2683
1	1699	2684
1	1691	2685
1	1692	2686
1	1690	2687
1	1698	2688
1	1710	2689
1	1718	2690
1	1724	2691
1	1734	2692
1	1731	2693
1	1729	2694
1	1725	2695
1	1720	2696
1	1712	2697
1	1713	2698
1	1719	2699
1	1798	2720
1	1814	2721
1	1827	2722
1	1827	2723
1	1819	2724
1	1803	2725
1	1791	2726
1	1789	2727
1	1788	2728
1	1787	2729
1	1776	2730
1	1760	2731
1	1733	2732
1	1712	2733
1	1695	2734
1	1675	2735
1	1660	2736
1	1657	2737
1	1652	2738
1	1646	2739
1	1643	2740
1	1647	2741
1	1644	2742
1	1651	2743
1	1661	2744
1	1662	2745
1	1656	2746
1	1642	2747
1	1629	2748
1	1616	2749
1	1607	2750
1	1606	2751
1	1607	2752
1	1615	2753
1	1625	2754
1	1636	2755
1	1655	2756
1	1674	2757
1	1692	2758
1	1705	2759
1	1716	2760
1	1731	2761
1	1743	2762
1	1755	2763
1	1767	2764
1	1780	2765
1	1785	2766
1	1790	2767
1	1800	2768
1	1803	2769
1	1813	2770
1	1818	2771
1	1824	2772
1	1822	2773
1	1817	2774
1	1817	2775
1	1812	2776
1	1791	2777
1	1779	2778
1	1764	2779
1	1741	2780
1	1714	2781
1	1692	2782
1	1661	2783
1	1638	2784
1	1625	2785
1	1616	2786
1	1618	2787
1	1634	2788
1	1652	2789
1	1680	2790
1	1706	2791
1	1731	2792
1	1753	2793
1	1775	2794
1	1773	2795
1	1754	2796
1	1738	2797
1	1712	2798
1	1684	2799
1	1660	2800
1	1645	2801
1	1642	2802
1	1639	2803
1	1638	2804
1	1650	2805
1	1662	2806
1	1675	2807
1	1686	2808
1	1703	2809
1	1729	2810
1	1751	2811
1	1776	2812
1	1785	2813
1	1778	2814
1	1767	2815
1	1757	2816
1	1746	2817
1	1737	2818
1	1728	2819
1	1723	2820
1	1725	2821
1	1728	2822
1	1738	2823
1	1744	2824
1	1751	2825
1	1752	2826
1	1755	2827
1	1750	2828
1	1738	2829
1	1733	2830
1	1721	2831
1	1714	2832
1	1712	2833
1	1710	2834
1	1703	2835
1	1694	2836
1	1675	2837
1	1660	2838
1	1634	2839
1	1607	2840
1	1579	2841
1	1543	2842
1	1521	2843
1	1498	2844
1	1499	2845
1	1502	2846
1	1529	2847
1	1567	2848
1	1609	2849
1	1662	2850
1	1714	2851
1	1757	2852
1	1790	2853
1	1814	2854
1	1818	2855
1	1813	2856
1	1795	2857
1	1770	2858
1	1751	2859
1	1917	2880
1	1896	2881
1	1877	2882
1	1850	2883
1	1825	2884
1	1791	2885
1	1760	2886
1	1738	2887
1	1711	2888
1	1687	2889
1	1669	2890
1	1659	2891
1	1651	2892
1	1644	2893
1	1637	2894
1	1634	2895
1	1625	2896
1	1611	2897
1	1607	2898
1	1604	2899
1	1724	2860
1	1706	2861
1	1686	2862
1	1667	2863
1	1660	2864
1	1660	2865
1	1662	2866
1	1688	2867
1	1712	2868
1	1744	2869
1	1772	2870
1	1795	2871
1	1827	2872
1	1846	2873
1	1869	2874
1	1893	2875
1	1908	2876
1	1919	2877
1	1923	2878
1	1923	2879
1	1602	2900
1	1594	2901
1	1590	2902
1	1581	2903
1	1577	2904
1	1574	2905
1	1580	2906
1	1583	2907
1	1594	2908
1	1607	2909
1	1615	2910
1	1616	2911
1	1616	2912
1	1626	2913
1	1650	2914
1	1680	2915
1	1697	2916
1	1719	2917
1	1734	2918
1	1733	2919
1	1713	2920
1	1695	2921
1	1674	2922
1	1651	2923
1	1626	2924
1	1606	2925
1	1589	2926
1	1581	2927
1	1580	2928
1	1582	2929
1	1590	2930
1	1594	2931
1	1608	2932
1	1616	2933
1	1623	2934
1	1628	2935
1	1634	2936
1	1645	2937
1	1654	2938
1	1660	2939
1	1669	2940
1	1677	2941
1	1686	2942
1	1693	2943
1	1698	2944
1	1706	2945
1	1712	2946
1	1728	2947
1	1743	2948
1	1770	2949
1	1803	2950
1	1863	2951
1	1917	2952
1	1979	2953
1	2038	2954
1	2083	2955
1	2119	2956
1	2155	2957
1	2182	2958
1	2217	2959
1	2253	2960
1	2270	2961
1	2288	2962
1	2288	2963
1	2278	2964
1	2260	2965
1	2222	2966
1	2189	2967
1	2150	2968
1	2101	2969
1	2037	2970
1	1949	2971
1	1847	2972
1	1721	2973
1	1605	2974
1	1485	2975
1	1359	2976
1	1269	2977
1	1201	2978
1	1154	2979
1	1123	2980
1	1100	2981
1	1081	2982
1	1058	2983
1	1040	2984
1	1031	2985
1	1029	2986
1	1040	2987
1	1053	2988
1	1070	2989
1	1085	2990
1	1096	2991
1	1110	2992
1	1111	2993
1	1107	2994
1	1099	2995
1	1088	2996
1	1081	2997
1	1075	2998
1	1076	2999
1	1085	3000
1	1109	3001
1	1135	3002
1	1161	3003
1	1199	3004
1	1242	3005
1	1284	3006
1	1337	3007
1	1391	3008
1	1443	3009
1	1498	3010
1	1553	3011
1	1600	3012
1	1634	3013
1	1655	3014
1	1660	3015
1	1654	3016
1	1643	3017
1	1628	3018
1	1619	3019
1	1610	3020
1	1602	3021
1	1602	3022
1	1597	3023
1	1595	3024
1	1594	3025
1	1594	3026
1	1603	3027
1	1606	3028
1	1611	3029
1	1622	3030
1	1638	3031
1	1655	3032
1	1660	3033
1	1665	3034
1	1682	3035
1	1703	3036
1	1746	3037
1	1780	3038
1	1803	3039
1	1814	3040
1	1814	3041
1	1791	3042
1	1767	3043
1	1749	3044
1	1729	3045
1	1711	3046
1	1694	3047
1	1679	3048
1	1661	3049
1	1649	3050
1	1645	3051
1	1649	3052
1	1655	3053
1	1662	3054
1	1669	3055
1	1688	3056
1	1705	3057
1	1720	3058
1	1734	3059
1	1738	3060
1	1746	3061
1	1757	3062
1	1764	3063
1	1770	3064
1	1778	3065
1	1780	3066
1	1787	3067
1	1778	3068
1	1775	3069
1	1775	3070
1	1778	3071
1	1780	3072
1	1775	3073
1	1763	3074
1	1746	3075
1	1729	3076
1	1711	3077
1	1677	3078
1	1647	3079
1	1618	3080
1	1593	3081
1	1584	3082
1	1579	3083
1	1585	3084
1	1607	3085
1	1643	3086
1	1689	3087
1	1738	3088
1	1791	3089
1	1842	3090
1	1881	3091
1	1904	3092
1	1906	3093
1	1905	3094
1	1895	3095
1	1884	3096
1	1884	3097
1	1874	3098
1	1869	3099
1	1865	3100
1	1858	3101
1	1849	3102
1	1838	3103
1	1821	3104
1	1794	3105
1	1766	3106
1	1738	3107
1	1710	3108
1	1695	3109
1	1685	3110
1	1683	3111
1	1690	3112
1	1687	3113
1	1685	3114
1	1674	3115
1	1666	3116
1	1661	3117
1	1662	3118
1	1672	3119
1	1682	3120
1	1697	3121
1	1724	3122
1	1750	3123
1	1783	3124
1	1814	3125
1	1825	3126
1	1843	3127
1	1850	3128
1	1857	3129
1	1869	3130
1	1880	3131
1	1882	3132
1	1881	3133
1	1886	3134
1	1893	3135
1	1904	3136
1	1913	3137
1	1921	3138
1	1929	3139
1	1939	3140
1	1956	3141
1	1966	3142
1	1983	3143
1	1978	3144
1	1985	3145
1	1973	3146
1	1962	3147
1	1948	3148
1	1922	3149
1	1893	3150
1	1862	3151
1	1832	3152
1	1811	3153
1	1796	3154
1	1799	3155
1	1813	3156
1	1836	3157
1	1859	3158
1	1891	3159
1	1922	3160
1	1957	3161
1	1975	3162
1	1989	3163
1	1998	3164
1	1999	3165
1	2001	3166
1	2001	3167
1	1989	3168
1	1987	3169
1	1978	3170
1	1965	3171
1	1965	3172
1	1962	3173
1	1958	3174
1	1956	3175
1	1949	3176
1	1940	3177
1	1932	3178
1	1929	3179
1	1931	3180
1	1933	3181
1	1934	3182
1	1925	3183
1	1922	3184
1	1921	3185
1	1922	3186
1	1940	3187
1	1953	3188
1	1970	3189
1	1988	3190
1	2003	3191
1	2015	3192
1	2022	3193
1	2023	3194
1	2017	3195
1	2010	3196
1	2000	3197
1	1979	3198
1	1967	3199
1	1949	3200
1	1938	3201
1	1946	3202
1	1953	3203
1	1971	3204
1	1983	3205
1	1994	3206
1	2000	3207
1	2004	3208
1	2008	3209
1	2003	3210
1	2000	3211
1	1999	3212
1	1979	3213
1	1957	3214
1	1922	3215
1	1887	3216
1	1862	3217
1	1833	3218
1	1800	3219
1	1776	3220
1	1760	3221
1	1748	3222
1	1737	3223
1	1724	3224
1	1706	3225
1	1687	3226
1	1674	3227
1	1658	3228
1	1654	3229
1	1659	3230
1	1660	3231
1	1675	3232
1	1684	3233
1	1688	3234
1	1698	3235
1	1709	3236
1	1715	3237
1	1718	3238
1	1714	3239
1	1719	3240
1	1726	3241
1	1731	3242
1	1736	3243
1	1739	3244
1	1743	3245
1	1738	3246
1	1734	3247
1	1718	3248
1	1697	3249
1	1674	3250
1	1657	3251
1	1629	3252
1	1607	3253
1	1591	3254
1	1580	3255
1	1571	3256
1	1566	3257
1	1555	3258
1	1556	3259
1	1468	3280
1	1476	3281
1	1492	3282
1	1514	3283
1	1533	3284
1	1549	3285
1	1555	3286
1	1566	3287
1	1569	3288
1	1571	3289
1	1576	3290
1	1567	3291
1	1570	3292
1	1564	3293
1	1560	3294
1	1555	3295
1	1557	3296
1	1561	3297
1	1561	3298
1	1556	3299
1	1562	3260
1	1555	3261
1	1557	3262
1	1549	3263
1	1543	3264
1	1542	3265
1	1542	3266
1	1543	3267
1	1549	3268
1	1559	3269
1	1572	3270
1	1582	3271
1	1581	3272
1	1560	3273
1	1542	3274
1	1522	3275
1	1495	3276
1	1479	3277
1	1467	3278
1	1463	3279
1	1554	3300
1	1550	3301
1	1547	3302
1	1547	3303
1	1555	3304
1	1569	3305
1	1576	3306
1	1594	3307
1	1597	3308
1	1599	3309
1	1598	3310
1	1586	3311
1	1577	3312
1	1564	3313
1	1555	3314
1	1547	3315
1	1539	3316
1	1536	3317
1	1529	3318
1	1529	3319
1	1523	3320
1	1497	3321
1	1477	3322
1	1442	3323
1	1405	3324
1	1368	3325
1	1344	3326
1	1337	3327
1	1361	3328
1	1417	3329
1	1485	3330
1	1557	3331
1	1626	3332
1	1669	3333
1	1702	3334
1	1726	3335
1	1742	3336
1	1775	3337
1	1792	3338
1	1800	3339
1	1463	3360
1	1467	3361
1	1481	3362
1	1495	3363
1	1517	3364
1	1539	3365
1	1555	3366
1	1587	3367
1	1607	3368
1	1621	3369
1	1634	3370
1	1634	3371
1	1631	3372
1	1633	3373
1	1638	3374
1	1647	3375
1	1651	3376
1	1651	3377
1	1643	3378
1	1634	3379
1	1799	3340
1	1794	3341
1	1768	3342
1	1738	3343
1	1712	3344
1	1685	3345
1	1659	3346
1	1636	3347
1	1613	3348
1	1594	3349
1	1576	3350
1	1555	3351
1	1547	3352
1	1534	3353
1	1518	3354
1	1503	3355
1	1490	3356
1	1476	3357
1	1463	3358
1	1458	3359
1	1613	3380
1	1586	3381
1	1576	3382
1	1555	3383
1	1531	3384
1	1517	3385
1	1503	3386
1	1492	3387
1	1491	3388
1	1498	3389
1	1503	3390
1	1503	3391
1	1497	3392
1	1476	3393
1	1453	3394
1	1445	3395
1	1441	3396
1	1465	3397
1	1489	3398
1	1524	3399
1	1566	3400
1	1615	3401
1	1654	3402
1	1682	3403
1	1699	3404
1	1710	3405
1	1715	3406
1	1723	3407
1	1716	3408
1	1710	3409
1	1700	3410
1	1680	3411
1	1677	3412
1	1662	3413
1	1646	3414
1	1627	3415
1	1607	3416
1	1584	3417
1	1564	3418
1	1549	3419
1	1538	3420
1	1531	3421
1	1526	3422
1	1503	3423
1	1486	3424
1	1476	3425
1	1463	3426
1	1472	3427
1	1469	3428
1	1475	3429
1	1489	3430
1	1511	3431
1	1543	3432
1	1580	3433
1	1612	3434
1	1638	3435
1	1654	3436
1	1660	3437
1	1651	3438
1	1641	3439
1	1634	3440
1	1621	3441
1	1613	3442
1	1620	3443
1	1612	3444
1	1607	3445
1	1611	3446
1	1613	3447
1	1621	3448
1	1633	3449
1	1636	3450
1	1638	3451
1	1643	3452
1	1648	3453
1	1661	3454
1	1674	3455
1	1678	3456
1	1690	3457
1	1695	3458
1	1694	3459
1	1697	3460
1	1712	3461
1	1714	3462
1	1713	3463
1	1712	3464
1	1699	3465
1	1686	3466
1	1661	3467
1	1620	3468
1	1581	3469
1	1541	3470
1	1499	3471
1	1481	3472
1	1464	3473
1	1451	3474
1	1441	3475
1	1439	3476
1	1454	3477
1	1487	3478
1	1523	3479
1	1555	3480
1	1580	3481
1	1595	3482
1	1602	3483
1	1607	3484
1	1603	3485
1	1584	3486
1	1590	3487
1	1587	3488
1	1587	3489
1	1583	3490
1	1579	3491
1	1577	3492
1	1580	3493
1	1582	3494
1	1589	3495
1	1594	3496
1	1598	3497
1	1593	3498
1	1581	3499
1	1579	3500
1	1572	3501
1	1585	3502
1	1585	3503
1	1590	3504
1	1590	3505
1	1584	3506
1	1574	3507
1	1564	3508
1	1555	3509
1	1546	3510
1	1528	3511
1	1508	3512
1	1488	3513
1	1474	3514
1	1466	3515
1	1461	3516
1	1478	3517
1	1491	3518
1	1513	3519
1	1534	3520
1	1557	3521
1	1580	3522
1	1595	3523
1	1607	3524
1	1615	3525
1	1619	3526
1	1620	3527
1	1610	3528
1	1602	3529
1	1589	3530
1	1573	3531
1	1579	3532
1	1580	3533
1	1595	3534
1	1611	3535
1	1634	3536
1	1657	3537
1	1685	3538
1	1711	3539
1	1728	3540
1	1753	3541
1	1780	3542
1	1819	3543
1	1872	3544
1	1938	3545
1	2004	3546
1	2075	3547
1	2132	3548
1	2184	3549
1	2222	3550
1	2260	3551
1	2270	3552
1	2264	3553
1	2235	3554
1	2173	3555
1	2097	3556
1	2000	3557
1	1884	3558
1	1759	3559
1	1632	3560
1	1503	3561
1	1380	3562
1	1266	3563
1	1166	3564
1	1085	3565
1	1026	3566
1	980	3567
1	953	3568
1	947	3569
1	953	3570
1	977	3571
1	1008	3572
1	1044	3573
1	1085	3574
1	1123	3575
1	1154	3576
1	1189	3577
1	1215	3578
1	1230	3579
1	1227	3580
1	1202	3581
1	1164	3582
1	1133	3583
1	1099	3584
1	1070	3585
1	1045	3586
1	1026	3587
1	1009	3588
1	1008	3589
1	1021	3590
1	1040	3591
1	1073	3592
1	1111	3593
1	1159	3594
1	1209	3595
1	1260	3596
1	1310	3597
1	1360	3598
1	1408	3599
1	1445	3600
1	1477	3601
1	1503	3602
1	1517	3603
1	1524	3604
1	1521	3605
1	1517	3606
1	1513	3607
1	1503	3608
1	1497	3609
1	1500	3610
1	1508	3611
1	1528	3612
1	1550	3613
1	1577	3614
1	1598	3615
1	1616	3616
1	1626	3617
1	1625	3618
1	1623	3619
1	1634	3640
1	1629	3641
1	1609	3642
1	1606	3643
1	1607	3644
1	1608	3645
1	1617	3646
1	1624	3647
1	1634	3648
1	1638	3649
1	1641	3650
1	1647	3651
1	1654	3652
1	1662	3653
1	1684	3654
1	1703	3655
1	1728	3656
1	1743	3657
1	1754	3658
1	1758	3659
1	1620	3620
1	1617	3621
1	1623	3622
1	1625	3623
1	1631	3624
1	1637	3625
1	1649	3626
1	1660	3627
1	1662	3628
1	1664	3629
1	1661	3630
1	1656	3631
1	1645	3632
1	1633	3633
1	1634	3634
1	1636	3635
1	1643	3636
1	1656	3637
1	1660	3638
1	1646	3639
1	1747	3700
1	1737	3701
1	1716	3702
1	1703	3703
1	1692	3704
1	1689	3705
1	1691	3706
1	1705	3707
1	1713	3708
1	1737	3709
1	1756	3710
1	1773	3711
1	1788	3712
1	1783	3713
1	1773	3714
1	1762	3715
1	1747	3716
1	1737	3717
1	1724	3718
1	1713	3719
1	1665	3680
1	1647	3681
1	1634	3682
1	1622	3683
1	1618	3684
1	1613	3685
1	1621	3686
1	1638	3687
1	1660	3688
1	1682	3689
1	1701	3690
1	1721	3691
1	1737	3692
1	1738	3693
1	1743	3694
1	1746	3695
1	1749	3696
1	1752	3697
1	1755	3698
1	1755	3699
1	1751	3660
1	1738	3661
1	1713	3662
1	1693	3663
1	1670	3664
1	1637	3665
1	1606	3666
1	1581	3667
1	1557	3668
1	1539	3669
1	1530	3670
1	1533	3671
1	1547	3672
1	1569	3673
1	1593	3674
1	1620	3675
1	1647	3676
1	1671	3677
1	1682	3678
1	1682	3679
1	1762	3740
1	1754	3741
1	1759	3742
1	1760	3743
1	1760	3744
1	1777	3745
1	1793	3746
1	1814	3747
1	1827	3748
1	1844	3749
1	1861	3750
1	1881	3751
1	1899	3752
1	1917	3753
1	1924	3754
1	1927	3755
1	1931	3756
1	1932	3757
1	1926	3758
1	1911	3759
1	1710	3720
1	1707	3721
1	1710	3722
1	1708	3723
1	1711	3724
1	1716	3725
1	1721	3726
1	1729	3727
1	1728	3728
1	1729	3729
1	1735	3730
1	1738	3731
1	1740	3732
1	1746	3733
1	1751	3734
1	1760	3735
1	1769	3736
1	1773	3737
1	1769	3738
1	1764	3739
1	1890	3760
1	1878	3761
1	1862	3762
1	1850	3763
1	1846	3764
1	1854	3765
1	1864	3766
1	1869	3767
1	1868	3768
1	1869	3769
1	1873	3770
1	1885	3771
1	1899	3772
1	1908	3773
1	1911	3774
1	1904	3775
1	1888	3776
1	1862	3777
1	1836	3778
1	1813	3779
1	1786	3780
1	1764	3781
1	1748	3782
1	1727	3783
1	1716	3784
1	1721	3785
1	1742	3786
1	1780	3787
1	1817	3788
1	1849	3789
1	1884	3790
1	1908	3791
1	1927	3792
1	1948	3793
1	1958	3794
1	1965	3795
1	1971	3796
1	1975	3797
1	1974	3798
1	1974	3799
1	1978	3800
1	1976	3801
1	1982	3802
1	1975	3803
1	1958	3804
1	1931	3805
1	1899	3806
1	1870	3807
1	1843	3808
1	1815	3809
1	1787	3810
1	1765	3811
1	1752	3812
1	1741	3813
1	1747	3814
1	1759	3815
1	1764	3816
1	1765	3817
1	1760	3818
1	1744	3819
1	1730	3820
1	1710	3821
1	1685	3822
1	1661	3823
1	1643	3824
1	1630	3825
1	1625	3826
1	1634	3827
1	1642	3828
1	1660	3829
1	1678	3830
1	1695	3831
1	1717	3832
1	1733	3833
1	1734	3834
1	1724	3835
1	1712	3836
1	1697	3837
1	1683	3838
1	1656	3839
1	1637	3840
1	1607	3841
1	1574	3842
1	1543	3843
1	1515	3844
1	1492	3845
1	1476	3846
1	1464	3847
1	1456	3848
1	1450	3849
1	1445	3850
1	1450	3851
1	1456	3852
1	1472	3853
1	1491	3854
1	1512	3855
1	1530	3856
1	1544	3857
1	1548	3858
1	1553	3859
1	1555	3860
1	1559	3861
1	1566	3862
1	1561	3863
1	1551	3864
1	1543	3865
1	1539	3866
1	1536	3867
1	1534	3868
1	1530	3869
1	1529	3870
1	1523	3871
1	1517	3872
1	1499	3873
1	1485	3874
1	1474	3875
1	1466	3876
1	1466	3877
1	1461	3878
1	1458	3879
1	1616	3900
1	1625	3901
1	1628	3902
1	1613	3903
1	1597	3904
1	1574	3905
1	1554	3906
1	1539	3907
1	1522	3908
1	1507	3909
1	1499	3910
1	1490	3911
1	1482	3912
1	1479	3913
1	1479	3914
1	1480	3915
1	1489	3916
1	1501	3917
1	1503	3918
1	1505	3919
1	1455	3880
1	1453	3881
1	1453	3882
1	1463	3883
1	1481	3884
1	1507	3885
1	1533	3886
1	1559	3887
1	1574	3888
1	1590	3889
1	1608	3890
1	1632	3891
1	1644	3892
1	1639	3893
1	1633	3894
1	1629	3895
1	1620	3896
1	1610	3897
1	1607	3898
1	1607	3899
1	1513	3920
1	1524	3921
1	1539	3922
1	1553	3923
1	1566	3924
1	1580	3925
1	1595	3926
1	1613	3927
1	1629	3928
1	1634	3929
1	1625	3930
1	1607	3931
1	1589	3932
1	1557	3933
1	1529	3934
1	1503	3935
1	1490	3936
1	1485	3937
1	1485	3938
1	1487	3939
1	1496	3940
1	1513	3941
1	1518	3942
1	1524	3943
1	1524	3944
1	1521	3945
1	1515	3946
1	1513	3947
1	1517	3948
1	1530	3949
1	1547	3950
1	1572	3951
1	1602	3952
1	1629	3953
1	1651	3954
1	1662	3955
1	1675	3956
1	1674	3957
1	1661	3958
1	1650	3959
1	1646	3960
1	1644	3961
1	1647	3962
1	1638	3963
1	1629	3964
1	1616	3965
1	1607	3966
1	1607	3967
1	1602	3968
1	1603	3969
1	1608	3970
1	1616	3971
1	1625	3972
1	1634	3973
1	1637	3974
1	1644	3975
1	1649	3976
1	1656	3977
1	1654	3978
1	1649	3979
1	1639	3980
1	1616	3981
1	1589	3982
1	1551	3983
1	1515	3984
1	1481	3985
1	1453	3986
1	1427	3987
1	1407	3988
1	1395	3989
1	1384	3990
1	1384	3991
1	1400	3992
1	1422	3993
1	1450	3994
1	1481	3995
1	1513	3996
1	1551	3997
1	1575	3998
1	1590	3999
1	1609	4000
1	1632	4001
1	1647	4002
1	1658	4003
1	1656	4004
1	1652	4005
1	1644	4006
1	1635	4006
1	1623	4008
1	1620	4009
1	1624	4010
1	1634	4011
1	1647	4012
1	1655	4013
1	1660	4014
1	1658	4014
1	1651	4016
1	1643	4017
1	1628	4018
1	1603	4019
1	1575	4020
1	1552	4021
1	1532	4022
1	1513	4022
1	1504	4024
1	1498	4025
1	1489	4026
1	1489	4027
1	1487	4028
1	1491	4029
1	1503	4030
1	1521	4030
1	1542	4032
1	1566	4033
1	1585	4034
1	1603	4035
1	1611	4036
1	1616	4037
1	1607	4038
1	1604	4038
1	1602	4040
1	1602	4041
1	1603	4042
1	1611	4043
1	1618	4044
1	1629	4045
1	1625	4046
1	1634	4046
1	1638	4048
1	1645	4049
1	1652	4050
1	1660	4051
1	1665	4052
1	1660	4053
1	1656	4054
1	1645	4054
1	1632	4056
1	1607	4057
1	1581	4058
1	1561	4059
1	1595	4080
1	1613	4081
1	1621	4082
1	1628	4083
1	1625	4084
1	1615	4085
1	1607	4086
1	1612	4086
1	1611	4088
1	1609	4089
1	1611	4090
1	1615	4091
1	1622	4092
1	1634	4093
1	1651	4094
1	1676	4094
1	1708	4096
1	1731	4097
1	1751	4098
1	1759	4099
1	1556	4060
1	1556	4061
1	1567	4062
1	1587	4062
1	1611	4064
1	1630	4065
1	1634	4066
1	1631	4067
1	1619	4068
1	1592	4069
1	1555	4070
1	1514	4070
1	1487	4072
1	1471	4073
1	1468	4074
1	1482	4075
1	1508	4076
1	1533	4077
1	1556	4078
1	1580	4078
1	1762	4100
1	1756	4101
1	1751	4102
1	1738	4103
1	1728	4104
1	1711	4105
1	1692	4106
1	1668	4107
1	1642	4108
1	1615	4109
1	1596	4110
1	1586	4111
1	1574	4112
1	1581	4113
1	1599	4114
1	1628	4115
1	1658	4116
1	1690	4117
1	1713	4118
1	1733	4119
1	1508	4140
1	1518	4141
1	1531	4142
1	1545	4143
1	1559	4144
1	1575	4145
1	1581	4146
1	1581	4147
1	1580	4148
1	1580	4149
1	1576	4150
1	1583	4151
1	1589	4152
1	1595	4153
1	1604	4154
1	1612	4155
1	1622	4156
1	1625	4157
1	1623	4158
1	1613	4159
1	1736	4120
1	1728	4121
1	1710	4122
1	1683	4123
1	1661	4124
1	1652	4125
1	1647	4126
1	1634	4127
1	1631	4128
1	1621	4129
1	1607	4130
1	1586	4131
1	1568	4132
1	1555	4133
1	1546	4134
1	1535	4135
1	1521	4136
1	1512	4137
1	1508	4138
1	1512	4139
1	1598	4160
1	1580	4161
1	1561	4162
1	1551	4163
1	1543	4164
1	1544	4165
1	1551	4166
1	1567	4167
1	1587	4168
1	1607	4169
1	1626	4170
1	1644	4171
1	1652	4172
1	1661	4173
1	1677	4174
1	1694	4175
1	1705	4176
1	1711	4177
1	1705	4178
1	1697	4179
1	2281	4200
1	2313	4201
1	2325	4202
1	2314	4203
1	2286	4204
1	2237	4205
1	2179	4206
1	2120	4207
1	2042	4208
1	1953	4209
1	1857	4210
1	1751	4211
1	1646	4212
1	1544	4213
1	1448	4214
1	1350	4215
1	1267	4216
1	1191	4217
1	1135	4218
1	1084	4219
1	1689	4180
1	1688	4181
1	1686	4182
1	1677	4183
1	1672	4184
1	1670	4185
1	1667	4186
1	1664	4187
1	1675	4188
1	1695	4189
1	1718	4190
1	1753	4191
1	1813	4192
1	1869	4193
1	1929	4194
1	1996	4195
1	2060	4196
1	2118	4197
1	2179	4198
1	2236	4199
1	1029	4220
1	978	4221
1	941	4222
1	924	4223
1	917	4224
1	919	4225
1	928	4226
1	942	4227
1	959	4228
1	992	4229
1	1022	4230
1	1055	4231
1	1082	4232
1	1107	4233
1	1133	4234
1	1161	4235
1	1188	4236
1	1215	4237
1	1241	4238
1	1269	4239
1	1291	4240
1	1320	4241
1	1337	4242
1	1369	4243
1	1400	4244
1	1433	4245
1	1454	4246
1	1481	4247
1	1503	4248
1	1528	4249
1	1545	4250
1	1563	4251
1	1571	4252
1	1571	4253
1	1576	4254
1	1580	4255
1	1592	4256
1	1599	4257
1	1607	4258
1	1607	4259
1	1602	4260
1	1585	4261
1	1569	4262
1	1564	4263
1	1561	4264
1	1566	4265
1	1580	4266
1	1600	4267
1	1612	4268
1	1625	4269
1	1633	4270
1	1634	4271
1	1639	4272
1	1647	4273
1	1646	4274
1	1643	4275
1	1635	4276
1	1629	4277
1	1623	4278
1	1620	4279
1	1618	4280
1	1618	4281
1	1633	4282
1	1647	4283
1	1667	4284
1	1687	4285
1	1705	4286
1	1719	4287
1	1731	4288
1	1739	4289
1	1747	4290
1	1749	4291
1	1744	4292
1	1740	4293
1	1740	4294
1	1742	4295
1	1746	4296
1	1764	4297
1	1778	4298
1	1785	4299
1	1793	4300
1	1814	4301
1	1826	4302
1	1827	4303
1	1824	4304
1	1818	4305
1	1817	4306
1	1809	4307
1	1814	4308
1	1817	4309
1	1818	4310
1	1816	4311
1	1803	4312
1	1783	4313
1	1767	4314
1	1756	4315
1	1747	4316
1	1744	4317
1	1738	4318
1	1730	4319
1	1723	4320
1	1719	4321
1	1701	4322
1	1679	4323
1	1648	4324
1	1616	4325
1	1581	4326
1	1555	4327
1	1530	4328
1	1515	4329
1	1513	4330
1	1530	4331
1	1561	4332
1	1603	4333
1	1644	4334
1	1686	4335
1	1726	4336
1	1749	4337
1	1781	4338
1	1809	4339
1	1832	4340
1	1849	4341
1	1869	4342
1	1895	4343
1	1901	4344
1	1908	4345
1	1923	4346
1	1930	4347
1	1931	4348
1	1927	4349
1	1922	4350
1	1920	4351
1	1908	4352
1	1895	4353
1	1871	4354
1	1845	4355
1	1824	4356
1	1803	4357
1	1800	4358
1	1814	4359
1	1834	4360
1	1850	4361
1	1865	4362
1	1872	4363
1	1867	4364
1	1857	4365
1	1852	4366
1	1843	4367
1	1841	4368
1	1842	4369
1	1842	4370
1	1841	4371
1	1844	4372
1	1849	4373
1	1859	4374
1	1870	4375
1	1880	4376
1	1887	4377
1	1895	4378
1	1900	4379
1	1904	4380
1	1908	4381
1	1906	4382
1	1906	4383
1	1903	4384
1	1893	4385
1	1881	4386
1	1872	4387
1	1864	4388
1	1859	4389
1	1856	4390
1	1859	4391
1	1860	4392
1	1864	4393
1	1868	4394
1	1870	4395
1	1880	4396
1	1888	4397
1	1899	4398
1	1913	4399
1	1922	4400
1	1934	4401
1	1945	4402
1	1943	4403
1	1942	4404
1	1948	4405
1	1958	4406
1	1974	4407
1	1998	4408
1	2021	4409
1	2044	4410
1	2066	4411
1	2080	4412
1	2097	4413
1	2111	4414
1	2111	4415
1	2107	4416
1	2106	4417
1	2093	4418
1	2078	4419
1	2062	4420
1	2043	4421
1	2026	4422
1	2013	4423
1	2005	4424
1	2004	4425
1	2004	4426
1	1988	4427
1	1975	4428
1	1973	4429
1	1971	4430
1	1971	4431
1	1982	4432
1	1982	4433
1	1986	4434
1	1995	4435
1	2011	4436
1	2026	4437
1	2036	4438
1	2039	4439
1	2026	4440
1	2022	4441
1	2014	4442
1	2012	4443
1	2004	4444
1	1998	4445
1	1992	4446
1	1995	4447
1	2004	4448
1	2016	4449
1	2025	4450
1	2031	4451
1	2026	4452
1	2017	4453
1	2009	4454
1	2000	4455
1	1988	4456
1	1967	4457
1	1950	4458
1	1942	4459
1	1863	4480
1	1832	4481
1	1796	4482
1	1770	4483
1	1746	4484
1	1728	4485
1	1718	4486
1	1708	4487
1	1695	4488
1	1686	4489
1	1682	4490
1	1676	4491
1	1675	4492
1	1672	4493
1	1674	4494
1	1683	4495
1	1688	4496
1	1693	4497
1	1699	4498
1	1701	4499
1	1694	4500
1	1681	4501
1	1667	4502
1	1657	4503
1	1650	4504
1	1652	4505
1	1660	4506
1	1675	4507
1	1686	4508
1	1695	4509
1	1701	4510
1	1711	4511
1	1712	4512
1	1712	4513
1	1709	4514
1	1707	4515
1	1699	4516
1	1685	4517
1	1665	4518
1	1646	4519
1	1934	4460
1	1925	4461
1	1922	4462
1	1908	4463
1	1897	4464
1	1893	4465
1	1892	4466
1	1892	4467
1	1897	4468
1	1911	4469
1	1932	4470
1	1952	4471
1	1972	4472
1	1990	4473
1	2000	4474
1	1997	4475
1	1985	4476
1	1966	4477
1	1931	4478
1	1896	4479
1	1616	4520
1	1586	4521
1	1565	4522
1	1539	4523
1	1521	4524
1	1518	4525
1	1529	4526
1	1549	4527
1	1576	4528
1	1603	4529
1	1625	4530
1	1647	4531
1	1665	4532
1	1691	4533
1	1713	4534
1	1729	4535
1	1737	4536
1	1744	4537
1	1739	4538
1	1728	4539
1	1647	4560
1	1675	4561
1	1686	4562
1	1691	4563
1	1691	4564
1	1686	4565
1	1680	4566
1	1674	4567
1	1663	4568
1	1655	4569
1	1647	4570
1	1638	4571
1	1634	4572
1	1633	4573
1	1634	4574
1	1639	4575
1	1645	4576
1	1647	4577
1	1657	4578
1	1665	4579
1	1705	4540
1	1684	4541
1	1647	4542
1	1619	4543
1	1592	4544
1	1561	4545
1	1536	4546
1	1519	4547
1	1505	4548
1	1503	4549
1	1501	4550
1	1494	4551
1	1498	4552
1	1502	4553
1	1512	4554
1	1526	4555
1	1544	4556
1	1566	4557
1	1591	4558
1	1615	4559
1	1681	4580
1	1695	4581
1	1711	4582
1	1715	4583
1	1723	4584
1	1726	4585
1	1729	4586
1	1726	4587
1	1718	4588
1	1715	4589
1	1713	4590
1	1715	4591
1	1713	4592
1	1719	4593
1	1727	4594
1	1736	4595
1	1739	4596
1	1753	4597
1	1759	4598
1	1755	4599
1	1747	4600
1	1736	4601
1	1718	4602
1	1704	4603
1	1686	4604
1	1665	4605
1	1654	4606
1	1636	4607
1	1626	4608
1	1611	4609
1	1602	4610
1	1590	4611
1	1586	4612
1	1582	4613
1	1581	4614
1	1589	4615
1	1604	4616
1	1619	4617
1	1634	4618
1	1646	4619
1	1661	4620
1	1681	4621
1	1686	4622
1	1688	4623
1	1685	4624
1	1671	4625
1	1659	4626
1	1657	4627
1	1651	4628
1	1647	4629
1	1652	4630
1	1660	4631
1	1662	4632
1	1660	4633
1	1656	4634
1	1655	4635
1	1654	4636
1	1647	4637
1	1648	4638
1	1651	4639
1	1654	4640
1	1652	4641
1	1660	4642
1	1667	4643
1	1672	4644
1	1679	4645
1	1682	4646
1	1686	4647
1	1686	4648
1	1688	4649
1	1692	4650
1	1701	4651
1	1707	4652
1	1712	4653
1	1712	4654
1	1703	4655
1	1698	4656
1	1697	4657
1	1695	4658
1	1690	4659
1	1690	4660
1	1681	4661
1	1668	4662
1	1654	4663
1	1638	4664
1	1622	4665
1	1610	4666
1	1598	4667
1	1596	4668
1	1603	4669
1	1608	4670
1	1613	4671
1	1624	4672
1	1621	4673
1	1621	4674
1	1628	4675
1	1638	4676
1	1658	4677
1	1672	4678
1	1685	4679
1	1694	4680
1	1698	4681
1	1698	4682
1	1699	4683
1	1698	4684
1	1686	4685
1	1677	4686
1	1667	4687
1	1647	4688
1	1634	4689
1	1620	4690
1	1611	4691
1	1611	4692
1	1622	4693
1	1634	4694
1	1645	4695
1	1659	4696
1	1670	4697
1	1685	4698
1	1699	4699
1	1710	4700
1	1719	4701
1	1737	4702
1	1744	4703
1	1755	4704
1	1758	4705
1	1755	4706
1	1751	4707
1	1749	4708
1	1744	4709
1	1737	4710
1	1720	4711
1	1699	4712
1	1682	4713
1	1661	4714
1	1644	4715
1	1625	4716
1	1613	4717
1	1607	4718
1	1602	4719
1	1605	4720
1	1606	4721
1	1595	4722
1	1587	4723
1	1569	4724
1	1555	4725
1	1548	4726
1	1547	4727
1	1555	4728
1	1574	4729
1	1589	4730
1	1603	4731
1	1613	4732
1	1613	4733
1	1616	4734
1	1631	4735
1	1641	4736
1	1658	4737
1	1674	4738
1	1691	4739
1	1710	4740
1	1728	4741
1	1744	4742
1	1751	4743
1	1760	4744
1	1762	4745
1	1764	4746
1	1764	4747
1	1764	4748
1	1767	4749
1	1770	4750
1	1780	4751
1	1782	4752
1	1780	4753
1	1788	4754
1	1796	4755
1	1817	4756
1	1824	4757
1	1834	4758
1	1835	4759
1	1823	4760
1	1803	4761
1	1791	4762
1	1769	4763
1	1754	4764
1	1742	4765
1	1736	4766
1	1728	4767
1	1721	4768
1	1712	4769
1	1703	4770
1	1698	4771
1	1697	4772
1	1695	4773
1	1699	4774
1	1706	4775
1	1721	4776
1	1742	4777
1	1760	4778
1	1772	4779
1	1782	4780
1	1777	4781
1	1760	4782
1	1734	4783
1	1710	4784
1	1688	4785
1	1674	4786
1	1662	4787
1	1664	4788
1	1668	4789
1	1672	4790
1	1674	4791
1	1680	4792
1	1679	4793
1	1680	4794
1	1683	4795
1	1686	4796
1	1691	4797
1	1697	4798
1	1701	4799
1	1705	4800
1	1717	4801
1	1730	4802
1	1734	4803
1	1726	4804
1	1712	4805
1	1700	4806
1	1701	4807
1	1701	4808
1	1696	4809
1	1688	4810
1	1686	4811
1	1690	4812
1	1704	4813
1	1715	4814
1	1723	4815
1	1728	4816
1	1724	4817
1	1718	4818
1	1712	4819
1	1698	4820
1	1683	4821
1	1670	4822
1	1651	4823
1	1634	4824
1	1621	4825
1	1613	4826
1	1608	4827
1	1607	4828
1	1606	4829
1	1605	4830
1	1607	4831
1	1606	4832
1	1607	4833
1	1613	4834
1	1625	4835
1	1633	4836
1	1638	4837
1	1636	4838
1	1634	4839
1	1623	4840
1	1631	4841
1	1634	4842
1	1652	4843
1	1673	4844
1	1693	4845
1	1712	4846
1	1718	4847
1	1730	4848
1	1738	4849
1	1738	4850
1	1741	4851
1	1740	4852
1	1741	4853
1	1752	4854
1	1762	4855
1	1792	4856
1	1825	4857
1	1843	4858
1	1869	4859
1	1895	4860
1	1922	4861
1	1949	4862
1	1998	4863
1	2055	4864
1	2120	4865
1	2197	4866
1	2288	4867
1	2358	4868
1	2410	4869
1	2445	4870
1	2463	4871
1	2469	4872
1	2445	4873
1	2404	4874
1	2347	4875
1	2275	4876
1	2171	4877
1	2066	4878
1	1950	4879
1	1832	4880
1	1710	4881
1	1602	4882
1	1501	4883
1	1407	4884
1	1326	4885
1	1267	4886
1	1233	4887
1	1215	4888
1	1215	4889
1	1215	4890
1	1216	4891
1	1215	4892
1	1212	4893
1	1215	4894
1	1207	4895
1	1191	4896
1	1179	4897
1	1163	4898
1	1152	4899
1	1144	4900
1	1145	4901
1	1148	4902
1	1145	4903
1	1145	4904
1	1151	4905
1	1158	4906
1	1164	4907
1	1176	4908
1	1191	4909
1	1211	4910
1	1232	4911
1	1265	4912
1	1292	4913
1	1319	4914
1	1345	4915
1	1368	4916
1	1394	4917
1	1414	4918
1	1436	4919
1	1452	4920
1	1475	4921
1	1488	4922
1	1506	4923
1	1528	4924
1	1544	4925
1	1568	4926
1	1599	4927
1	1630	4928
1	1657	4929
1	1685	4930
1	1707	4931
1	1721	4932
1	1728	4933
1	1726	4934
1	1719	4935
1	1712	4936
1	1701	4937
1	1700	4938
1	1705	4939
1	1710	4940
1	1714	4941
1	1712	4942
1	1712	4943
1	1701	4944
1	1690	4945
1	1699	4946
1	1703	4947
1	1726	4948
1	1755	4949
1	1780	4950
1	1803	4951
1	1828	4952
1	1847	4953
1	1859	4954
1	1860	4955
1	1859	4956
1	1850	4957
1	1835	4958
1	1834	4959
1	1832	4960
1	1841	4961
1	1843	4962
1	1843	4963
1	1841	4964
1	1841	4965
1	1842	4966
1	1839	4967
1	1839	4968
1	1824	4969
1	1809	4970
1	1784	4971
1	1767	4972
1	1750	4973
1	1737	4974
1	1734	4975
1	1738	4976
1	1743	4977
1	1744	4978
1	1743	4979
1	1918	5000
1	1907	5001
1	1895	5002
1	1873	5003
1	1866	5004
1	1857	5005
1	1857	5006
1	1856	5007
1	1853	5008
1	1844	5009
1	1832	5010
1	1819	5011
1	1798	5012
1	1790	5013
1	1793	5014
1	1817	5015
1	1832	5016
1	1850	5017
1	1856	5018
1	1858	5019
1	1738	4980
1	1722	4981
1	1697	4982
1	1676	4983
1	1661	4984
1	1657	4985
1	1660	4986
1	1674	4987
1	1695	4988
1	1715	4989
1	1749	4990
1	1783	4991
1	1821	4992
1	1847	4993
1	1870	4994
1	1895	4995
1	1914	4996
1	1923	4997
1	1931	4998
1	1923	4999
1	1860	5020
1	1859	5021
1	1854	5022
1	1848	5023
1	1845	5024
1	1856	5025
1	1866	5026
1	1869	5027
1	1886	5028
1	1898	5029
1	1908	5030
1	1917	5031
1	1932	5032
1	1942	5033
1	1948	5034
1	1949	5035
1	1941	5036
1	1922	5037
1	1904	5038
1	1891	5039
1	1872	5040
1	1867	5041
1	1852	5042
1	1842	5043
1	1835	5044
1	1830	5045
1	1832	5046
1	1834	5047
1	1843	5048
1	1856	5049
1	1868	5050
1	1884	5051
1	1891	5052
1	1895	5053
1	1900	5054
1	1909	5055
1	1922	5056
1	1931	5057
1	1944	5058
1	1953	5059
1	1970	5080
1	1981	5081
1	1994	5082
1	2000	5083
1	2000	5084
1	2000	5085
1	1999	5086
1	1996	5087
1	2000	5088
1	2008	5089
1	2012	5090
1	2016	5091
1	2031	5092
1	2045	5093
1	2061	5094
1	2079	5095
1	2091	5096
1	2105	5097
1	2118	5098
1	2126	5099
1	2119	5100
1	2105	5101
1	2077	5102
1	2050	5103
1	2021	5104
1	1996	5105
1	1975	5106
1	1970	5107
1	1971	5108
1	1981	5109
1	2001	5110
1	2021	5111
1	2040	5112
1	2060	5113
1	2076	5114
1	2087	5115
1	2094	5116
1	2093	5117
1	2102	5118
1	2105	5119
1	1963	5060
1	1972	5061
1	1985	5062
1	1997	5063
1	2009	5064
1	2026	5065
1	2049	5066
1	2069	5067
1	2093	5068
1	2110	5069
1	2119	5070
1	2121	5071
1	2106	5072
1	2086	5073
1	2066	5074
1	2039	5075
1	2013	5076
1	1998	5077
1	1976	5078
1	1967	5079
1	2111	5120
1	2111	5121
1	2111	5122
1	2103	5123
1	2088	5124
1	2068	5125
1	2048	5126
1	2024	5127
1	1998	5128
1	1974	5129
1	1958	5130
1	1952	5131
1	1948	5132
1	1946	5133
1	1948	5134
1	1949	5135
1	1949	5136
1	1953	5137
1	1950	5138
1	1953	5139
1	1948	5140
1	1949	5141
1	1938	5142
1	1926	5143
1	1917	5144
1	1908	5145
1	1899	5146
1	1893	5147
1	1884	5148
1	1877	5149
1	1870	5150
1	1864	5151
1	1854	5152
1	1841	5153
1	1829	5154
1	1819	5155
1	1823	5156
1	1811	5157
1	1791	5158
1	1780	5159
1	1766	5160
1	1754	5161
1	1739	5162
1	1726	5163
1	1713	5164
1	1698	5165
1	1685	5166
1	1677	5167
1	1668	5168
1	1661	5169
1	1657	5170
1	1652	5171
1	1661	5172
1	1677	5173
1	1697	5174
1	1713	5175
1	1731	5176
1	1737	5177
1	1742	5178
1	1746	5179
1	1747	5180
1	1741	5181
1	1736	5182
1	1714	5183
1	1692	5184
1	1665	5185
1	1639	5186
1	1616	5187
1	1587	5188
1	1561	5189
1	1542	5190
1	1533	5191
1	1523	5192
1	1525	5193
1	1538	5194
1	1561	5195
1	1595	5196
1	1630	5197
1	1648	5198
1	1660	5199
1	1660	5200
1	1659	5201
1	1659	5202
1	1659	5203
1	1662	5204
1	1677	5205
1	1693	5206
1	1705	5207
1	1718	5208
1	1727	5209
1	1719	5210
1	1703	5211
1	1692	5212
1	1678	5213
1	1665	5214
1	1656	5215
1	1643	5216
1	1626	5217
1	1609	5218
1	1600	5219
1	1598	5220
1	1607	5221
1	1607	5222
1	1607	5223
1	1607	5224
1	1613	5225
1	1621	5226
1	1636	5227
1	1647	5228
1	1656	5229
1	1665	5230
1	1672	5231
1	1682	5232
1	1686	5233
1	1692	5234
1	1699	5235
1	1706	5236
1	1700	5237
1	1687	5238
1	1668	5239
1	1647	5240
1	1634	5241
1	1629	5242
1	1646	5243
1	1662	5244
1	1686	5245
1	1706	5246
1	1724	5247
1	1737	5248
1	1735	5249
1	1733	5250
1	1726	5251
1	1720	5252
1	1712	5253
1	1703	5254
1	1696	5255
1	1688	5256
1	1683	5257
1	1677	5258
1	1677	5259
1	1678	5260
1	1680	5261
1	1664	5262
1	1647	5263
1	1636	5264
1	1636	5265
1	1646	5266
1	1656	5267
1	1673	5268
1	1697	5269
1	1718	5270
1	1742	5271
1	1773	5272
1	1791	5273
1	1809	5274
1	1814	5275
1	1795	5276
1	1765	5277
1	1728	5278
1	1686	5279
1	1646	5280
1	1611	5281
1	1582	5282
1	1565	5283
1	1555	5284
1	1553	5285
1	1552	5286
1	1555	5287
1	1555	5288
1	1566	5289
1	1590	5290
1	1622	5291
1	1656	5292
1	1686	5293
1	1708	5294
1	1724	5295
1	1736	5296
1	1737	5297
1	1737	5298
1	1740	5299
1	1740	5300
1	1738	5301
1	1742	5302
1	1738	5303
1	1733	5304
1	1724	5305
1	1721	5306
1	1718	5307
1	1713	5308
1	1711	5309
1	1707	5310
1	1705	5311
1	1696	5312
1	1690	5313
1	1692	5314
1	1701	5315
1	1712	5316
1	1726	5317
1	1735	5318
1	1738	5319
1	1738	5320
1	1741	5321
1	1744	5322
1	1744	5323
1	1742	5324
1	1738	5325
1	1721	5326
1	1693	5327
1	1665	5328
1	1636	5329
1	1613	5330
1	1593	5331
1	1582	5332
1	1566	5333
1	1550	5334
1	1530	5335
1	1513	5336
1	1494	5337
1	1482	5338
1	1476	5339
1	1467	5340
1	1467	5341
1	1476	5342
1	1503	5343
1	1531	5344
1	1566	5345
1	1599	5346
1	1631	5347
1	1657	5348
1	1682	5349
1	1710	5350
1	1741	5351
1	1769	5352
1	1793	5353
1	1817	5354
1	1832	5355
1	1841	5356
1	1832	5357
1	1824	5358
1	1813	5359
1	1796	5360
1	1778	5361
1	1753	5362
1	1721	5363
1	1693	5364
1	1674	5365
1	1661	5366
1	1660	5367
1	1669	5368
1	1681	5369
1	1691	5370
1	1695	5371
1	1687	5372
1	1683	5373
1	1674	5374
1	1670	5375
1	1663	5376
1	1662	5377
1	1652	5378
1	1646	5379
1	1639	5380
1	1637	5381
1	1634	5382
1	1633	5383
1	1616	5384
1	1600	5385
1	1583	5386
1	1569	5387
1	1568	5388
1	1573	5389
1	1585	5390
1	1607	5391
1	1634	5392
1	1660	5393
1	1687	5394
1	1708	5395
1	1719	5396
1	1724	5397
1	1716	5398
1	1703	5399
1	1682	5400
1	1660	5401
1	1638	5402
1	1624	5403
1	1620	5404
1	1621	5405
1	1629	5406
1	1647	5407
1	1662	5408
1	1687	5409
1	1716	5410
1	1743	5411
1	1764	5412
1	1788	5413
1	1801	5414
1	1808	5415
1	1792	5416
1	1760	5417
1	1726	5418
1	1693	5419
1	1661	5420
1	1636	5421
1	1625	5422
1	1611	5423
1	1603	5424
1	1599	5425
1	1607	5426
1	1628	5427
1	1647	5428
1	1669	5429
1	1698	5430
1	1726	5431
1	1742	5432
1	1760	5433
1	1772	5434
1	1774	5435
1	1772	5436
1	1767	5437
1	1746	5438
1	1724	5439
1	1697	5440
1	1682	5441
1	1659	5442
1	1641	5443
1	1629	5444
1	1625	5445
1	1628	5446
1	1634	5447
1	1645	5448
1	1660	5449
1	1678	5450
1	1698	5451
1	1724	5452
1	1749	5453
1	1770	5454
1	1791	5455
1	1821	5456
1	1841	5457
1	1855	5458
1	1866	5459
1	1869	5460
1	1865	5461
1	1843	5462
1	1821	5463
1	1791	5464
1	1763	5465
1	1729	5466
1	1703	5467
1	1681	5468
1	1661	5469
1	1647	5470
1	1644	5471
1	1652	5472
1	1665	5473
1	1679	5474
1	1678	5475
1	1670	5476
1	1659	5477
1	1647	5478
1	1638	5479
1	1634	5480
1	1631	5481
1	1633	5482
1	1630	5483
1	1625	5484
1	1622	5485
1	1629	5486
1	1636	5487
1	1643	5488
1	1649	5489
1	1660	5490
1	1674	5491
1	1678	5492
1	1680	5493
1	1676	5494
1	1670	5495
1	1660	5496
1	1660	5497
1	1652	5498
1	1641	5499
1	1634	5500
1	1626	5501
1	1620	5502
1	1612	5503
1	1607	5504
1	1601	5505
1	1599	5506
1	1599	5507
1	1605	5508
1	1608	5509
1	1613	5510
1	1618	5511
1	1626	5512
1	1631	5513
1	1634	5514
1	1634	5515
1	1634	5516
1	1642	5517
1	1660	5518
1	1682	5519
1	1703	5520
1	1721	5521
1	1731	5522
1	1743	5523
1	1762	5524
1	1775	5525
1	1787	5526
1	1792	5527
1	1792	5528
1	1791	5529
1	1790	5530
1	1789	5531
1	1791	5532
1	1808	5533
1	1834	5534
1	1869	5535
1	1913	5536
1	1962	5537
1	2022	5538
1	2080	5539
1	2137	5540
1	2188	5541
1	2246	5542
1	2300	5543
1	2330	5544
1	2345	5545
1	2341	5546
1	2318	5547
1	2280	5548
1	2219	5549
1	2147	5550
1	2065	5551
1	1991	5552
1	1918	5553
1	1844	5554
1	1764	5555
1	1683	5556
1	1593	5557
1	1508	5558
1	1427	5559
1	1350	5560
1	1298	5561
1	1256	5562
1	1228	5563
1	1206	5564
1	1190	5565
1	1179	5566
1	1162	5567
1	1153	5568
1	1149	5569
1	1139	5570
1	1133	5571
1	1128	5572
1	1118	5573
1	1110	5574
1	1104	5575
1	1101	5576
1	1096	5577
1	1089	5578
1	1088	5579
1	1624	5600
1	1618	5601
1	1609	5602
1	1594	5603
1	1571	5604
1	1542	5605
1	1518	5606
1	1505	5607
1	1503	5608
1	1505	5609
1	1520	5610
1	1536	5611
1	1555	5612
1	1581	5613
1	1610	5614
1	1644	5615
1	1679	5616
1	1713	5617
1	1743	5618
1	1764	5619
1	1092	5580
1	1104	5581
1	1110	5582
1	1123	5583
1	1138	5584
1	1162	5585
1	1196	5586
1	1237	5587
1	1278	5588
1	1321	5589
1	1359	5590
1	1397	5591
1	1426	5592
1	1458	5593
1	1498	5594
1	1538	5595
1	1572	5596
1	1591	5597
1	1608	5598
1	1621	5599
1	1785	5620
1	1800	5621
1	1814	5622
1	1816	5623
1	1816	5624
1	1817	5625
1	1817	5626
1	1803	5627
1	1801	5628
1	1809	5629
1	1819	5630
1	1825	5631
1	1827	5632
1	1817	5633
1	1798	5634
1	1781	5635
1	1769	5636
1	1762	5637
1	1752	5638
1	1745	5639
1	1728	5640
1	1715	5641
1	1700	5642
1	1688	5643
1	1675	5644
1	1664	5645
1	1660	5646
1	1656	5647
1	1659	5648
1	1664	5649
1	1686	5650
1	1723	5651
1	1755	5652
1	1792	5653
1	1831	5654
1	1859	5655
1	1878	5656
1	1878	5657
1	1873	5658
1	1869	5659
1	1855	5660
1	1843	5661
1	1832	5662
1	1816	5663
1	1796	5664
1	1783	5665
1	1768	5666
1	1751	5667
1	1737	5668
1	1728	5669
1	1718	5670
1	1713	5671
1	1710	5672
1	1710	5673
1	1715	5674
1	1724	5675
1	1736	5676
1	1750	5677
1	1757	5678
1	1759	5679
1	1791	5700
1	1769	5701
1	1744	5702
1	1730	5703
1	1721	5704
1	1725	5705
1	1738	5706
1	1764	5707
1	1791	5708
1	1828	5709
1	1862	5710
1	1891	5711
1	1903	5712
1	1908	5713
1	1914	5714
1	1917	5715
1	1917	5716
1	1904	5717
1	1895	5718
1	1891	5719
1	1756	5680
1	1751	5681
1	1747	5682
1	1750	5683
1	1755	5684
1	1765	5685
1	1782	5686
1	1791	5687
1	1816	5688
1	1837	5689
1	1852	5690
1	1866	5691
1	1880	5692
1	1888	5693
1	1888	5694
1	1883	5695
1	1871	5696
1	1859	5697
1	1843	5698
1	1818	5699
1	1887	5720
1	1886	5721
1	1893	5722
1	1891	5723
1	1888	5724
1	1887	5725
1	1886	5726
1	1885	5727
1	1887	5728
1	1895	5729
1	1905	5730
1	1919	5731
1	1926	5732
1	1944	5733
1	1962	5734
1	1976	5735
1	1993	5736
1	2003	5737
1	2002	5738
1	1998	5739
1	1980	5740
1	1975	5741
1	1958	5742
1	1940	5743
1	1926	5744
1	1913	5745
1	1913	5746
1	1913	5747
1	1919	5748
1	1926	5749
1	1936	5750
1	1944	5751
1	1952	5752
1	1965	5753
1	1966	5754
1	1971	5755
1	1981	5756
1	1990	5757
1	1988	5758
1	1985	5759
1	1985	5760
1	1976	5761
1	1953	5762
1	1939	5763
1	1931	5764
1	1933	5765
1	1940	5766
1	1957	5767
1	1966	5768
1	1973	5769
1	1973	5770
1	1965	5771
1	1955	5772
1	1940	5773
1	1917	5774
1	1895	5775
1	1882	5776
1	1873	5777
1	1883	5778
1	1898	5779
1	1919	5780
1	1940	5781
1	1970	5782
1	1989	5783
1	2001	5784
1	2008	5785
1	2013	5786
1	2013	5787
1	2021	5788
1	2034	5789
1	2048	5790
1	2053	5791
1	2052	5792
1	2052	5793
1	2047	5794
1	2038	5795
1	2030	5796
1	2031	5797
1	2034	5798
1	2030	5799
1	2029	5800
1	2027	5801
1	2026	5802
1	2024	5803
1	2007	5804
1	1989	5805
1	1974	5806
1	1961	5807
1	1958	5808
1	1958	5809
1	1955	5810
1	1953	5811
1	1957	5812
1	1952	5813
1	1948	5814
1	1948	5815
1	1947	5816
1	1946	5817
1	1944	5818
1	1937	5819
1	1922	5820
1	1908	5821
1	1877	5822
1	1850	5823
1	1819	5824
1	1787	5825
1	1751	5826
1	1721	5827
1	1687	5828
1	1660	5829
1	1633	5830
1	1606	5831
1	1577	5832
1	1549	5833
1	1529	5834
1	1523	5835
1	1525	5836
1	1525	5837
1	1539	5838
1	1555	5839
1	1571	5840
1	1586	5841
1	1600	5842
1	1618	5843
1	1622	5844
1	1625	5845
1	1628	5846
1	1638	5847
1	1659	5848
1	1684	5849
1	1707	5850
1	1726	5851
1	1736	5852
1	1746	5853
1	1752	5854
1	1756	5855
1	1752	5856
1	1736	5857
1	1706	5858
1	1671	5859
1	1636	5860
1	1600	5861
1	1574	5862
1	1550	5863
1	1529	5864
1	1520	5865
1	1517	5866
1	1517	5867
1	1524	5868
1	1530	5869
1	1537	5870
1	1544	5871
1	1562	5872
1	1578	5873
1	1592	5874
1	1607	5875
1	1617	5876
1	1620	5877
1	1616	5878
1	1610	5879
1	1607	5880
1	1607	5881
1	1606	5882
1	1607	5883
1	1607	5884
1	1607	5885
1	1608	5886
1	1611	5887
1	1606	5888
1	1595	5889
1	1581	5890
1	1567	5891
1	1553	5892
1	1539	5893
1	1529	5894
1	1526	5895
1	1523	5896
1	1517	5897
1	1514	5898
1	1512	5899
1	1513	5900
1	1521	5901
1	1536	5902
1	1543	5903
1	1553	5904
1	1557	5905
1	1571	5906
1	1589	5907
1	1611	5908
1	1634	5909
1	1646	5910
1	1659	5911
1	1660	5912
1	1670	5913
1	1685	5914
1	1704	5915
1	1724	5916
1	1747	5917
1	1764	5918
1	1775	5919
1	1782	5920
1	1782	5921
1	1779	5922
1	1773	5923
1	1761	5924
1	1742	5925
1	1727	5926
1	1705	5927
1	1691	5928
1	1679	5929
1	1661	5930
1	1645	5931
1	1631	5932
1	1609	5933
1	1593	5934
1	1580	5935
1	1571	5936
1	1572	5937
1	1577	5938
1	1578	5939
1	1573	5940
1	1576	5941
1	1579	5942
1	1581	5943
1	1582	5944
1	1589	5945
1	1593	5946
1	1597	5947
1	1602	5948
1	1616	5949
1	1634	5950
1	1657	5951
1	1668	5952
1	1674	5953
1	1678	5954
1	1671	5955
1	1658	5956
1	1634	5957
1	1611	5958
1	1594	5959
1	1573	5960
1	1556	5961
1	1556	5962
1	1560	5963
1	1566	5964
1	1568	5965
1	1574	5966
1	1581	5967
1	1592	5968
1	1598	5969
1	1602	5970
1	1604	5971
1	1597	5972
1	1597	5973
1	1602	5974
1	1611	5975
1	1621	5976
1	1634	5977
1	1635	5978
1	1636	5979
1	1630	5980
1	1621	5981
1	1615	5982
1	1608	5983
1	1607	5984
1	1613	5985
1	1626	5986
1	1635	5987
1	1652	5988
1	1666	5989
1	1677	5990
1	1686	5991
1	1698	5992
1	1704	5993
1	1708	5994
1	1707	5995
1	1697	5996
1	1681	5997
1	1657	5998
1	1631	5999
1	1604	6000
1	1576	6001
1	1554	6002
1	1533	6003
1	1516	6004
1	1503	6005
1	1503	6006
1	1514	6007
1	1533	6008
1	1557	6009
1	1582	6010
1	1607	6011
1	1628	6012
1	1641	6013
1	1649	6014
1	1656	6015
1	1658	6016
1	1647	6017
1	1629	6018
1	1607	6019
1	1587	6020
1	1575	6021
1	1566	6022
1	1555	6023
1	1551	6024
1	1555	6025
1	1568	6026
1	1587	6027
1	1603	6028
1	1613	6029
1	1629	6030
1	1638	6031
1	1643	6032
1	1647	6033
1	1651	6034
1	1649	6035
1	1644	6036
1	1639	6037
1	1631	6038
1	1620	6039
1	1607	6040
1	1582	6041
1	1577	6042
1	1571	6043
1	1573	6044
1	1577	6045
1	1580	6046
1	1584	6047
1	1595	6048
1	1609	6049
1	1624	6050
1	1634	6051
1	1634	6052
1	1634	6053
1	1625	6054
1	1623	6055
1	1626	6056
1	1621	6057
1	1616	6058
1	1610	6059
1	1607	6060
1	1608	6061
1	1605	6062
1	1602	6063
1	1600	6064
1	1602	6065
1	1606	6066
1	1611	6067
1	1616	6068
1	1624	6069
1	1635	6070
1	1651	6071
1	1665	6072
1	1672	6073
1	1667	6074
1	1660	6075
1	1659	6076
1	1643	6077
1	1626	6078
1	1598	6079
1	1686	6100
1	1679	6101
1	1665	6102
1	1654	6103
1	1641	6104
1	1633	6105
1	1626	6106
1	1616	6107
1	1604	6108
1	1590	6109
1	1582	6110
1	1582	6111
1	1595	6112
1	1610	6113
1	1634	6114
1	1657	6115
1	1686	6116
1	1716	6117
1	1743	6118
1	1764	6119
1	1565	6080
1	1529	6081
1	1498	6082
1	1479	6083
1	1476	6084
1	1485	6085
1	1502	6086
1	1520	6087
1	1544	6088
1	1581	6089
1	1620	6090
1	1652	6091
1	1674	6092
1	1698	6093
1	1715	6094
1	1727	6095
1	1730	6096
1	1727	6097
1	1714	6098
1	1700	6099
1	1775	6120
1	1787	6121
1	1782	6122
1	1777	6123
1	1770	6124
1	1764	6125
1	1760	6126
1	1757	6127
1	1742	6128
1	1724	6129
1	1699	6130
1	1674	6131
1	1652	6132
1	1635	6133
1	1620	6134
1	1608	6135
1	1609	6136
1	1611	6137
1	1615	6138
1	1618	6139
1	1625	6140
1	1634	6141
1	1649	6142
1	1675	6143
1	1697	6144
1	1710	6145
1	1710	6146
1	1700	6147
1	1688	6148
1	1680	6149
1	1674	6150
1	1670	6151
1	1658	6152
1	1639	6153
1	1616	6154
1	1587	6155
1	1566	6156
1	1557	6157
1	1557	6158
1	1566	6159
1	1587	6180
1	1582	6181
1	1571	6182
1	1565	6183
1	1569	6184
1	1578	6185
1	1589	6186
1	1606	6187
1	1618	6188
1	1636	6189
1	1658	6190
1	1671	6191
1	1682	6192
1	1686	6193
1	1695	6194
1	1704	6195
1	1712	6196
1	1712	6197
1	1710	6198
1	1704	6199
1	1697	6200
1	1688	6201
1	1680	6202
1	1662	6203
1	1648	6204
1	1636	6205
1	1629	6206
1	1628	6207
1	1631	6208
1	1638	6209
1	1646	6210
1	1654	6211
1	1652	6212
1	1656	6213
1	1657	6214
1	1661	6215
1	1675	6216
1	1698	6217
1	1724	6218
1	1761	6219
1	1585	6160
1	1606	6161
1	1620	6162
1	1634	6163
1	1644	6164
1	1647	6165
1	1647	6166
1	1634	6167
1	1622	6168
1	1613	6169
1	1607	6170
1	1607	6171
1	1618	6172
1	1626	6173
1	1634	6174
1	1632	6175
1	1619	6176
1	1607	6177
1	1599	6178
1	1593	6179
1	1795	6220
1	1831	6221
1	1854	6222
1	1869	6223
1	1895	6224
1	1921	6225
1	1949	6226
1	1982	6227
1	2026	6228
1	2079	6229
1	2133	6230
1	2186	6231
1	2243	6232
1	2287	6233
1	2309	6234
1	2310	6235
1	2281	6236
1	2228	6237
1	2156	6238
1	2079	6239
1	1982	6240
1	1882	6241
1	1764	6242
1	1646	6243
1	1531	6244
1	1425	6245
1	1320	6246
1	1233	6247
1	1160	6248
1	1110	6249
1	1083	6250
1	1080	6251
1	1083	6252
1	1088	6253
1	1098	6254
1	1107	6255
1	1110	6256
1	1111	6257
1	1119	6258
1	1121	6259
1	1117	6260
1	1110	6261
1	1107	6262
1	1100	6263
1	1105	6264
1	1114	6265
1	1130	6266
1	1147	6267
1	1171	6268
1	1197	6269
1	1229	6270
1	1261	6271
1	1288	6272
1	1319	6273
1	1347	6274
1	1372	6275
1	1391	6276
1	1404	6277
1	1412	6278
1	1412	6279
1	1411	6280
1	1417	6281
1	1427	6282
1	1448	6283
1	1466	6284
1	1485	6285
1	1503	6286
1	1513	6287
1	1535	6288
1	1566	6289
1	1592	6290
1	1616	6291
1	1647	6292
1	1670	6293
1	1692	6294
1	1713	6295
1	1729	6296
1	1740	6297
1	1738	6298
1	1737	6299
1	1724	6300
1	1708	6301
1	1690	6302
1	1675	6303
1	1660	6304
1	1647	6305
1	1642	6306
1	1641	6307
1	1634	6308
1	1634	6309
1	1638	6310
1	1651	6311
1	1660	6312
1	1675	6313
1	1687	6314
1	1704	6315
1	1712	6316
1	1705	6317
1	1695	6318
1	1683	6319
1	1674	6320
1	1672	6321
1	1674	6322
1	1670	6323
1	1670	6324
1	1677	6325
1	1691	6326
1	1712	6327
1	1738	6328
1	1752	6329
1	1763	6330
1	1769	6331
1	1767	6332
1	1770	6333
1	1778	6334
1	1780	6335
1	1782	6336
1	1788	6337
1	1786	6338
1	1775	6339
1	1762	6340
1	1747	6341
1	1734	6342
1	1724	6343
1	1712	6344
1	1697	6345
1	1684	6346
1	1672	6347
1	1664	6348
1	1661	6349
1	1665	6350
1	1686	6351
1	1706	6352
1	1724	6353
1	1739	6354
1	1751	6355
1	1765	6356
1	1773	6357
1	1785	6358
1	1793	6359
1	1801	6360
1	1809	6361
1	1791	6362
1	1782	6363
1	1776	6364
1	1772	6365
1	1773	6366
1	1782	6367
1	1789	6368
1	1791	6369
1	1791	6370
1	1795	6371
1	1798	6372
1	1808	6373
1	1803	6374
1	1795	6375
1	1791	6376
1	1779	6377
1	1775	6378
1	1769	6379
1	1770	6380
1	1779	6381
1	1791	6382
1	1801	6383
1	1817	6384
1	1829	6385
1	1842	6386
1	1851	6387
1	1859	6388
1	1860	6389
1	1844	6390
1	1826	6391
1	1796	6392
1	1778	6393
1	1764	6394
1	1754	6395
1	1761	6396
1	1778	6397
1	1795	6398
1	1825	6399
1	1847	6400
1	1862	6401
1	1872	6402
1	1887	6403
1	1899	6404
1	1917	6405
1	1930	6406
1	1935	6407
1	1937	6408
1	1940	6409
1	1935	6410
1	1932	6411
1	1927	6412
1	1913	6413
1	1897	6414
1	1890	6415
1	1883	6416
1	1883	6417
1	1884	6418
1	1886	6419
1	1895	6420
1	1904	6421
1	1904	6422
1	1908	6423
1	1908	6424
1	1904	6425
1	1897	6426
1	1894	6427
1	1887	6428
1	1886	6429
1	1893	6430
1	1900	6431
1	1908	6432
1	1908	6433
1	1898	6434
1	1890	6435
1	1881	6436
1	1869	6437
1	1868	6438
1	1873	6439
1	1884	6440
1	1895	6441
1	1914	6442
1	1932	6443
1	1949	6444
1	1988	6445
1	2025	6446
1	2066	6447
1	2099	6448
1	2119	6449
1	2131	6450
1	2135	6451
1	2127	6452
1	2122	6453
1	2121	6454
1	2118	6455
1	2117	6456
1	2118	6457
1	2119	6458
1	2120	6459
1	2113	6480
1	2086	6481
1	2050	6482
1	2008	6483
1	1974	6484
1	1948	6485
1	1929	6486
1	1913	6487
1	1912	6488
1	1923	6489
1	1940	6490
1	1962	6491
1	1987	6492
1	2002	6493
1	2016	6494
1	2026	6495
1	2028	6496
1	2026	6497
1	2019	6498
1	2003	6499
1	1993	6500
1	1980	6501
1	1959	6502
1	1944	6503
1	1924	6504
1	1908	6505
1	1900	6506
1	1905	6507
1	1916	6508
1	1939	6509
1	1968	6510
1	2000	6511
1	2026	6512
1	2050	6513
1	2066	6514
1	2079	6515
1	2082	6516
1	2071	6517
1	2049	6518
1	2006	6519
1	1959	6500
1	1914	6501
1	1881	6502
1	1859	6503
1	1850	6504
1	1854	6505
1	1863	6506
1	1881	6507
1	1895	6508
1	1893	6509
1	1882	6510
1	1865	6511
1	1841	6512
1	1821	6513
1	1802	6514
1	1787	6515
1	1770	6516
1	1764	6517
1	1760	6518
1	1764	6519
1	1773	6520
1	1782	6521
1	1782	6522
1	1772	6523
1	1751	6524
1	1727	6525
1	1708	6526
1	1692	6527
1	1688	6528
1	1690	6529
1	1687	6530
1	1686	6531
1	1679	6532
1	1664	6533
1	1638	6534
1	1607	6535
1	1581	6536
1	1564	6537
1	1555	6538
1	1554	6539
1	1537	6580
1	1525	6581
1	1514	6582
1	1515	6583
1	1521	6584
1	1528	6585
1	1530	6586
1	1533	6587
1	1544	6588
1	1561	6589
1	1580	6590
1	1592	6591
1	1594	6592
1	1584	6593
1	1580	6594
1	1589	6595
1	1603	6596
1	1616	6597
1	1633	6598
1	1639	6599
1	1543	6540
1	1535	6541
1	1538	6542
1	1542	6543
1	1543	6544
1	1540	6545
1	1535	6546
1	1530	6547
1	1534	6548
1	1541	6549
1	1548	6550
1	1568	6551
1	1587	6552
1	1607	6553
1	1633	6554
1	1651	6555
1	1671	6556
1	1675	6557
1	1676	6558
1	1661	6559
1	1635	6560
1	1611	6561
1	1598	6562
1	1593	6563
1	1589	6564
1	1590	6565
1	1598	6566
1	1608	6567
1	1619	6568
1	1629	6569
1	1634	6570
1	1634	6571
1	1628	6572
1	1616	6573
1	1607	6574
1	1595	6575
1	1587	6576
1	1581	6577
1	1569	6578
1	1553	6579
1	1634	6600
1	1621	6601
1	1607	6602
1	1595	6603
1	1596	6604
1	1596	6605
1	1594	6606
1	1590	6607
1	1582	6608
1	1580	6609
1	1578	6610
1	1582	6611
1	1594	6612
1	1610	6613
1	1631	6614
1	1646	6615
1	1651	6616
1	1647	6617
1	1642	6618
1	1634	6619
1	1618	6620
1	1598	6621
1	1580	6622
1	1567	6623
1	1566	6624
1	1578	6625
1	1584	6626
1	1593	6627
1	1603	6628
1	1610	6629
1	1624	6630
1	1641	6631
1	1651	6632
1	1662	6633
1	1678	6634
1	1690	6635
1	1704	6636
1	1712	6637
1	1710	6638
1	1700	6639
1	1688	6640
1	1680	6641
1	1665	6642
1	1656	6643
1	1639	6644
1	1625	6645
1	1610	6646
1	1600	6647
1	1595	6648
1	1602	6649
1	1615	6650
1	1632	6651
1	1638	6652
1	1641	6653
1	1644	6654
1	1647	6655
1	1662	6656
1	1678	6657
1	1686	6658
1	1695	6659
1	1697	6660
1	1688	6661
1	1672	6662
1	1651	6663
1	1623	6664
1	1597	6665
1	1575	6666
1	1555	6667
1	1542	6668
1	1533	6669
1	1536	6670
1	1551	6671
1	1563	6672
1	1573	6673
1	1581	6674
1	1584	6675
1	1587	6676
1	1581	6677
1	1573	6678
1	1557	6679
1	1607	6700
1	1572	6701
1	1546	6702
1	1528	6703
1	1520	6704
1	1521	6705
1	1528	6706
1	1528	6707
1	1531	6708
1	1542	6709
1	1557	6710
1	1590	6711
1	1623	6712
1	1654	6713
1	1674	6714
1	1683	6715
1	1685	6716
1	1683	6717
1	1679	6718
1	1675	6719
1	1543	6680
1	1530	6681
1	1526	6682
1	1525	6683
1	1529	6684
1	1548	6685
1	1571	6686
1	1595	6687
1	1626	6688
1	1660	6689
1	1691	6690
1	1716	6691
1	1728	6692
1	1737	6693
1	1737	6694
1	1730	6695
1	1721	6696
1	1707	6697
1	1679	6698
1	1645	6699
1	1670	6720
1	1664	6721
1	1654	6722
1	1647	6723
1	1643	6724
1	1639	6725
1	1644	6726
1	1647	6727
1	1642	6728
1	1634	6729
1	1621	6730
1	1610	6731
1	1603	6732
1	1595	6733
1	1595	6734
1	1592	6735
1	1584	6736
1	1581	6737
1	1581	6738
1	1584	6739
1	1592	6740
1	1593	6741
1	1598	6742
1	1607	6743
1	1609	6744
1	1625	6745
1	1633	6746
1	1634	6747
1	1629	6748
1	1623	6749
1	1613	6750
1	1607	6751
1	1596	6752
1	1594	6753
1	1607	6754
1	1621	6755
1	1641	6756
1	1649	6757
1	1647	6758
1	1638	6759
1	1633	6760
1	1618	6761
1	1606	6762
1	1592	6763
1	1580	6764
1	1573	6765
1	1579	6766
1	1581	6767
1	1582	6768
1	1584	6769
1	1592	6770
1	1600	6771
1	1611	6772
1	1628	6773
1	1651	6774
1	1679	6775
1	1705	6776
1	1715	6777
1	1712	6778
1	1692	6779
1	1671	6800
1	1671	6801
1	1672	6802
1	1661	6803
1	1652	6804
1	1642	6805
1	1638	6806
1	1641	6807
1	1646	6808
1	1652	6809
1	1660	6810
1	1665	6811
1	1665	6812
1	1675	6813
1	1682	6814
1	1686	6815
1	1694	6816
1	1700	6817
1	1697	6818
1	1690	6819
1	1661	6780
1	1629	6781
1	1582	6782
1	1548	6783
1	1525	6784
1	1506	6785
1	1508	6786
1	1526	6787
1	1543	6788
1	1559	6789
1	1580	6790
1	1593	6791
1	1606	6792
1	1612	6793
1	1625	6794
1	1638	6795
1	1648	6796
1	1654	6797
1	1661	6798
1	1669	6799
1	1680	6820
1	1663	6821
1	1652	6822
1	1644	6823
1	1635	6824
1	1633	6825
1	1629	6826
1	1623	6827
1	1626	6828
1	1634	6829
1	1646	6830
1	1667	6831
1	1687	6832
1	1709	6833
1	1728	6834
1	1738	6835
1	1740	6836
1	1733	6837
1	1712	6838
1	1686	6839
1	1657	6840
1	1634	6841
1	1618	6842
1	1607	6843
1	1607	6844
1	1621	6845
1	1649	6846
1	1682	6847
1	1711	6848
1	1731	6849
1	1739	6850
1	1749	6851
1	1742	6852
1	1737	6853
1	1723	6854
1	1712	6855
1	1701	6856
1	1687	6857
1	1678	6858
1	1665	6859
1	1655	6860
1	1644	6861
1	1630	6862
1	1615	6863
1	1607	6864
1	1600	6865
1	1597	6866
1	1598	6867
1	1602	6868
1	1602	6869
1	1607	6870
1	1607	6871
1	1603	6872
1	1595	6873
1	1587	6874
1	1581	6875
1	1581	6876
1	1581	6877
1	1579	6878
1	1573	6879
1	1567	6880
1	1559	6881
1	1545	6882
1	1530	6883
1	1525	6884
1	1526	6885
1	1529	6886
1	1535	6887
1	1554	6888
1	1571	6889
1	1589	6890
1	1607	6891
1	1623	6892
1	1634	6893
1	1643	6894
1	1651	6895
1	1660	6896
1	1660	6897
1	1660	6898
1	1649	6899
1	1635	6900
1	1629	6901
1	1618	6902
1	1607	6903
1	1596	6904
1	1589	6905
1	1589	6906
1	1595	6907
1	1607	6908
1	1625	6909
1	1647	6910
1	1671	6911
1	1701	6912
1	1737	6913
1	1769	6914
1	1793	6915
1	1801	6916
1	1791	6917
1	1787	6918
1	1779	6919
1	1774	6920
1	1778	6921
1	1792	6922
1	1814	6923
1	1840	6924
1	1877	6925
1	1922	6926
1	1976	6927
1	2043	6928
1	2113	6929
1	2188	6930
1	2262	6931
1	2318	6932
1	2367	6933
1	2389	6934
1	2380	6935
1	2342	6936
1	2279	6937
1	2178	6938
1	2079	6939
1	1134	6960
1	1110	6961
1	1084	6962
1	1062	6963
1	1040	6964
1	1027	6965
1	1020	6966
1	1024	6967
1	1029	6968
1	1039	6969
1	1059	6970
1	1094	6971
1	1131	6972
1	1164	6973
1	1203	6974
1	1246	6975
1	1293	6976
1	1336	6977
1	1384	6978
1	1445	6979
1	1980	6940
1	1878	6941
1	1783	6942
1	1698	6943
1	1619	6944
1	1542	6945
1	1464	6946
1	1384	6947
1	1322	6948
1	1279	6949
1	1242	6950
1	1217	6951
1	1199	6952
1	1188	6953
1	1188	6954
1	1188	6955
1	1189	6956
1	1185	6957
1	1173	6958
1	1155	6959
1	1498	6980
1	1546	6981
1	1586	6982
1	1611	6983
1	1624	6984
1	1619	6985
1	1611	6986
1	1605	6987
1	1605	6988
1	1598	6989
1	1589	6990
1	1566	6991
1	1538	6992
1	1515	6993
1	1507	6994
1	1513	6995
1	1529	6996
1	1547	6997
1	1567	6998
1	1593	6999
1	1616	7000
1	1632	7001
1	1636	7002
1	1637	7003
1	1637	7004
1	1636	7005
1	1636	7006
1	1638	7007
1	1641	7008
1	1647	7009
1	1657	7010
1	1665	7011
1	1673	7012
1	1676	7013
1	1682	7014
1	1683	7015
1	1687	7016
1	1697	7017
1	1706	7018
1	1716	7019
1	1731	7020
1	1744	7021
1	1759	7022
1	1779	7023
1	1789	7024
1	1790	7025
1	1787	7026
1	1786	7027
1	1782	7028
1	1780	7029
1	1786	7030
1	1790	7031
1	1793	7032
1	1796	7033
1	1792	7034
1	1791	7035
1	1791	7036
1	1785	7037
1	1780	7038
1	1776	7039
1	1773	7040
1	1770	7041
1	1773	7042
1	1772	7043
1	1764	7044
1	1770	7045
1	1769	7046
1	1765	7047
1	1757	7048
1	1746	7049
1	1742	7050
1	1744	7051
1	1744	7052
1	1747	7053
1	1757	7054
1	1778	7055
1	1791	7056
1	1796	7057
1	1791	7058
1	1782	7059
1	1775	7060
1	1764	7061
1	1756	7062
1	1751	7063
1	1747	7064
1	1738	7065
1	1727	7066
1	1712	7067
1	1705	7068
1	1699	7069
1	1697	7070
1	1706	7071
1	1729	7072
1	1750	7073
1	1767	7074
1	1786	7075
1	1799	7076
1	1814	7077
1	1815	7078
1	1809	7079
1	1801	7080
1	1812	7081
1	1814	7082
1	1817	7083
1	1823	7084
1	1831	7085
1	1836	7086
1	1843	7087
1	1841	7088
1	1832	7089
1	1824	7090
1	1814	7091
1	1790	7092
1	1770	7093
1	1764	7094
1	1764	7095
1	1764	7096
1	1764	7097
1	1764	7098
1	1769	7099
1	1774	7100
1	1788	7101
1	1812	7102
1	1822	7103
1	1833	7104
1	1844	7105
1	1855	7106
1	1860	7107
1	1867	7108
1	1873	7109
1	1886	7110
1	1901	7111
1	1913	7112
1	1926	7113
1	1937	7114
1	1946	7115
1	1950	7116
1	1965	7117
1	1969	7118
1	1972	7119
1	1965	7120
1	1953	7121
1	1943	7122
1	1924	7123
1	1907	7124
1	1883	7125
1	1866	7126
1	1851	7127
1	1845	7128
1	1850	7129
1	1863	7130
1	1880	7131
1	1906	7132
1	1929	7133
1	1958	7134
1	1983	7135
1	2006	7136
1	2025	7137
1	2039	7138
1	2052	7139
1	2052	7140
1	2053	7141
1	2051	7142
1	2040	7143
1	2029	7144
1	2017	7145
1	2007	7146
1	1999	7147
1	1994	7148
1	1991	7149
1	1993	7150
1	2007	7151
1	2014	7152
1	2016	7153
1	2017	7154
1	2019	7155
1	2018	7156
1	2011	7157
1	2008	7158
1	2001	7159
1	1996	7160
1	1983	7161
1	1975	7162
1	1962	7163
1	1957	7164
1	1960	7165
1	1963	7166
1	1967	7167
1	1969	7168
1	1967	7169
1	1966	7170
1	1974	7171
1	1984	7172
1	2007	7173
1	2034	7174
1	2055	7175
1	2074	7176
1	2092	7177
1	2093	7178
1	2088	7179
1	2079	7180
1	2061	7181
1	2052	7182
1	2048	7183
1	2051	7184
1	2053	7185
1	2061	7186
1	2054	7187
1	2052	7188
1	2041	7189
1	2026	7190
1	2007	7191
1	1999	7192
1	1985	7193
1	1978	7194
1	1977	7195
1	1975	7196
1	1971	7197
1	1956	7198
1	1940	7199
1	1922	7200
1	1904	7201
1	1881	7202
1	1862	7203
1	1842	7204
1	1822	7205
1	1814	7206
1	1819	7207
1	1824	7208
1	1832	7209
1	1841	7210
1	1843	7211
1	1843	7212
1	1841	7213
1	1834	7214
1	1828	7215
1	1818	7216
1	1803	7217
1	1789	7218
1	1773	7219
1	1755	7220
1	1737	7221
1	1728	7222
1	1716	7223
1	1711	7224
1	1700	7225
1	1691	7226
1	1683	7227
1	1685	7228
1	1686	7229
1	1686	7230
1	1687	7231
1	1685	7232
1	1683	7233
1	1679	7234
1	1675	7235
1	1670	7236
1	1674	7237
1	1674	7238
1	1668	7239
1	1656	7240
1	1635	7241
1	1607	7242
1	1572	7243
1	1536	7244
1	1512	7245
1	1503	7246
1	1503	7247
1	1513	7248
1	1541	7249
1	1569	7250
1	1600	7251
1	1623	7252
1	1634	7253
1	1644	7254
1	1654	7255
1	1665	7256
1	1667	7257
1	1660	7258
1	1647	7259
1	1633	7260
1	1613	7261
1	1593	7262
1	1582	7263
1	1581	7264
1	1590	7265
1	1597	7266
1	1612	7267
1	1621	7268
1	1629	7269
1	1634	7270
1	1634	7271
1	1633	7272
1	1628	7273
1	1616	7274
1	1606	7275
1	1590	7276
1	1570	7277
1	1555	7278
1	1548	7279
1	1539	7280
1	1530	7281
1	1533	7282
1	1535	7283
1	1535	7284
1	1535	7285
1	1539	7286
1	1546	7287
1	1555	7288
1	1568	7289
1	1584	7290
1	1603	7291
1	1610	7292
1	1625	7293
1	1641	7294
1	1655	7295
1	1660	7296
1	1666	7297
1	1660	7298
1	1656	7299
1	1654	7300
1	1656	7301
1	1656	7302
1	1643	7303
1	1623	7304
1	1603	7305
1	1582	7306
1	1563	7307
1	1555	7308
1	1552	7309
1	1554	7310
1	1560	7311
1	1586	7312
1	1608	7313
1	1633	7314
1	1651	7315
1	1662	7316
1	1665	7317
1	1665	7318
1	1660	7319
1	1659	7320
1	1656	7321
1	1647	7322
1	1647	7323
1	1646	7324
1	1642	7325
1	1632	7326
1	1635	7327
1	1647	7328
1	1657	7329
1	1660	7330
1	1660	7331
1	1654	7332
1	1647	7333
1	1647	7334
1	1648	7335
1	1644	7336
1	1634	7337
1	1626	7338
1	1621	7339
1	1598	7360
1	1602	7361
1	1594	7362
1	1587	7363
1	1571	7364
1	1555	7365
1	1540	7366
1	1525	7367
1	1517	7368
1	1512	7369
1	1512	7370
1	1519	7371
1	1539	7372
1	1555	7373
1	1580	7374
1	1607	7375
1	1634	7376
1	1660	7377
1	1685	7378
1	1701	7379
1	1618	7340
1	1620	7341
1	1622	7342
1	1616	7343
1	1605	7344
1	1598	7345
1	1602	7346
1	1607	7347
1	1629	7348
1	1649	7349
1	1669	7350
1	1680	7351
1	1683	7352
1	1686	7353
1	1686	7354
1	1675	7355
1	1659	7356
1	1638	7357
1	1619	7358
1	1607	7359
1	1712	7380
1	1718	7381
1	1712	7382
1	1711	7383
1	1703	7384
1	1698	7385
1	1691	7386
1	1688	7387
1	1677	7388
1	1659	7389
1	1635	7390
1	1613	7391
1	1590	7392
1	1571	7393
1	1558	7394
1	1555	7395
1	1555	7396
1	1555	7397
1	1564	7398
1	1572	7399
1	1576	7400
1	1574	7401
1	1576	7402
1	1572	7403
1	1573	7404
1	1579	7405
1	1581	7406
1	1584	7407
1	1594	7408
1	1606	7409
1	1617	7410
1	1633	7411
1	1638	7412
1	1645	7413
1	1647	7414
1	1638	7415
1	1621	7416
1	1608	7417
1	1593	7418
1	1580	7419
1	1572	7420
1	1574	7421
1	1579	7422
1	1582	7423
1	1587	7424
1	1589	7425
1	1581	7426
1	1569	7427
1	1560	7428
1	1559	7429
1	1565	7430
1	1573	7431
1	1592	7432
1	1609	7433
1	1629	7434
1	1637	7435
1	1638	7436
1	1634	7437
1	1634	7438
1	1636	7439
1	1634	7440
1	1632	7441
1	1626	7442
1	1620	7443
1	1611	7444
1	1607	7445
1	1605	7446
1	1610	7447
1	1623	7448
1	1638	7449
1	1647	7450
1	1656	7451
1	1652	7452
1	1647	7453
1	1646	7454
1	1646	7455
1	1643	7456
1	1634	7457
1	1626	7458
1	1615	7459
1	1602	7460
1	1585	7461
1	1581	7462
1	1579	7463
1	1580	7464
1	1583	7465
1	1593	7466
1	1607	7467
1	1620	7468
1	1631	7469
1	1634	7470
1	1641	7471
1	1644	7472
1	1646	7473
1	1649	7474
1	1652	7475
1	1655	7476
1	1667	7477
1	1669	7478
1	1664	7479
1	1665	7480
1	1664	7481
1	1662	7482
1	1652	7483
1	1634	7484
1	1612	7485
1	1593	7486
1	1567	7487
1	1546	7488
1	1533	7489
1	1535	7490
1	1539	7491
1	1551	7492
1	1552	7493
1	1556	7494
1	1570	7495
1	1587	7496
1	1603	7497
1	1625	7498
1	1645	7499
1	1656	7500
1	1660	7501
1	1662	7502
1	1665	7503
1	1670	7504
1	1674	7505
1	1686	7506
1	1711	7507
1	1731	7508
1	1751	7509
1	1769	7510
1	1783	7511
1	1791	7512
1	1790	7513
1	1773	7514
1	1752	7515
1	1731	7516
1	1706	7517
1	1691	7518
1	1682	7519
1	1674	7520
1	1665	7521
1	1665	7522
1	1658	7523
1	1647	7524
1	1638	7525
1	1640	7526
1	1644	7527
1	1649	7528
1	1662	7529
1	1679	7530
1	1692	7531
1	1696	7532
1	1698	7533
1	1701	7534
1	1704	7535
1	1703	7536
1	1708	7537
1	1700	7538
1	1690	7539
1	1679	7560
1	1670	7561
1	1660	7562
1	1644	7563
1	1625	7564
1	1611	7565
1	1604	7566
1	1594	7567
1	1585	7568
1	1584	7569
1	1584	7570
1	1582	7571
1	1581	7572
1	1578	7573
1	1580	7574
1	1593	7575
1	1618	7576
1	1639	7577
1	1661	7578
1	1683	7579
1	1701	7580
1	1712	7581
1	1712	7582
1	1711	7583
1	1709	7584
1	1705	7585
1	1703	7586
1	1710	7587
1	1712	7588
1	1716	7589
1	1721	7590
1	1728	7591
1	1725	7592
1	1712	7593
1	1695	7594
1	1671	7595
1	1644	7596
1	1607	7597
1	1580	7598
1	1555	7599
1	1529	7600
1	1513	7601
1	1508	7602
1	1503	7603
1	1511	7604
1	1527	7605
1	1547	7606
1	1571	7607
1	1595	7608
1	1616	7609
1	1631	7610
1	1643	7611
1	1647	7612
1	1648	7613
1	1649	7614
1	1657	7615
1	1661	7616
1	1667	7617
1	1674	7618
1	1682	7619
1	1686	7600
1	1687	7601
1	1690	7602
1	1700	7603
1	1713	7604
1	1728	7605
1	1744	7606
1	1760	7607
1	1778	7608
1	1800	7609
1	1835	7610
1	1875	7611
1	1923	7612
1	1975	7613
1	2035	7614
1	2096	7615
1	2157	7616
1	2210	7617
1	2254	7618
1	2284	7619
1	2300	7620
1	2304	7621
1	2290	7622
1	2275	7623
1	2251	7624
1	2214	7625
1	2171	7626
1	2114	7627
1	2044	7628
1	1965	7629
1	1884	7630
1	1798	7631
1	1712	7632
1	1625	7633
1	1539	7634
1	1461	7635
1	1398	7636
1	1335	7637
1	1292	7638
1	1265	7639
1	1241	7640
1	1222	7641
1	1207	7642
1	1188	7643
1	1161	7644
1	1139	7645
1	1116	7646
1	1094	7647
1	1076	7648
1	1063	7649
1	1052	7650
1	1040	7651
1	1031	7652
1	1022	7653
1	1014	7654
1	1004	7655
1	1004	7656
1	999	7657
1	1004	7658
1	1016	7659
1	1040	7660
1	1068	7661
1	1101	7662
1	1140	7663
1	1181	7664
1	1215	7665
1	1251	7666
1	1286	7667
1	1330	7668
1	1375	7669
1	1425	7670
1	1474	7671
1	1516	7672
1	1551	7673
1	1586	7674
1	1625	7675
1	1660	7676
1	1685	7677
1	1700	7678
1	1712	7679
1	1724	7680
1	1730	7681
1	1721	7682
1	1715	7683
1	1703	7684
1	1686	7685
1	1675	7686
1	1674	7687
1	1676	7688
1	1682	7689
1	1687	7690
1	1701	7691
1	1720	7692
1	1738	7693
1	1748	7694
1	1755	7695
1	1757	7696
1	1747	7697
1	1738	7698
1	1738	7699
1	1740	7700
1	1745	7701
1	1744	7702
1	1743	7703
1	1740	7704
1	1737	7705
1	1733	7706
1	1731	7707
1	1738	7708
1	1746	7709
1	1752	7710
1	1754	7711
1	1751	7712
1	1750	7713
1	1743	7714
1	1733	7715
1	1723	7716
1	1712	7717
1	1698	7718
1	1692	7719
1	1692	7720
1	1692	7721
1	1687	7722
1	1682	7723
1	1674	7724
1	1665	7725
1	1660	7726
1	1655	7727
1	1659	7728
1	1672	7729
1	1688	7730
1	1711	7731
1	1722	7732
1	1728	7733
1	1740	7734
1	1755	7735
1	1773	7736
1	1792	7737
1	1814	7738
1	1821	7739
1	1816	7740
1	1814	7741
1	1808	7742
1	1799	7743
1	1796	7744
1	1794	7745
1	1801	7746
1	1803	7747
1	1812	7748
1	1817	7749
1	1824	7750
1	1829	7751
1	1834	7752
1	1837	7753
1	1838	7754
1	1844	7755
1	1856	7756
1	1856	7757
1	1861	7758
1	1865	7759
1	1868	7760
1	1869	7761
1	1865	7762
1	1856	7763
1	1849	7764
1	1831	7765
1	1800	7766
1	1769	7767
1	1737	7768
1	1708	7769
1	1688	7770
1	1677	7771
1	1664	7772
1	1661	7773
1	1674	7774
1	1688	7775
1	1718	7776
1	1751	7777
1	1778	7778
1	1815	7779
1	1844	7780
1	1872	7781
1	1896	7782
1	1908	7783
1	1908	7784
1	1900	7785
1	1897	7786
1	1883	7787
1	1869	7788
1	1858	7789
1	1851	7790
1	1855	7791
1	1869	7792
1	1885	7793
1	1898	7794
1	1906	7795
1	1906	7796
1	1899	7797
1	1895	7798
1	1887	7799
1	1872	7800
1	1860	7801
1	1852	7802
1	1847	7803
1	1845	7804
1	1847	7805
1	1852	7806
1	1857	7807
1	1861	7808
1	1875	7809
1	1895	7810
1	1922	7811
1	1947	7812
1	1970	7813
1	1994	7814
1	2013	7815
1	2027	7816
1	2027	7817
1	2023	7818
1	2005	7819
1	1976	7820
1	1952	7821
1	1931	7822
1	1908	7823
1	1890	7824
1	1877	7825
1	1870	7826
1	1864	7827
1	1865	7828
1	1872	7829
1	1886	7830
1	1904	7831
1	1924	7832
1	1953	7833
1	1985	7834
1	2015	7835
1	2037	7836
1	2052	7837
1	2053	7838
1	2054	7839
1	2058	7840
1	2057	7841
1	2048	7842
1	2044	7843
1	2039	7844
1	2029	7845
1	2025	7846
1	2024	7847
1	2021	7848
1	2022	7849
1	2019	7850
1	2012	7851
1	2001	7852
1	2000	7853
1	2000	7854
1	2004	7855
1	2021	7856
1	2028	7857
1	2039	7858
1	2045	7859
1	2048	7860
1	2048	7861
1	2042	7862
1	2039	7863
1	2035	7864
1	2039	7865
1	2052	7866
1	2071	7867
1	2080	7868
1	2097	7869
1	2111	7870
1	2115	7871
1	2106	7872
1	2091	7873
1	2074	7874
1	2051	7875
1	2023	7876
1	1991	7877
1	1965	7878
1	1948	7879
1	1930	7880
1	1908	7881
1	1893	7882
1	1869	7883
1	1850	7884
1	1834	7885
1	1824	7886
1	1822	7887
1	1826	7888
1	1833	7889
1	1842	7890
1	1852	7891
1	1867	7892
1	1882	7893
1	1896	7894
1	1908	7895
1	1908	7896
1	1899	7897
1	1875	7898
1	1854	7899
1	1831	7900
1	1803	7901
1	1779	7902
1	1764	7903
1	1756	7904
1	1754	7905
1	1753	7906
1	1744	7907
1	1742	7908
1	1742	7909
1	1742	7910
1	1742	7911
1	1752	7912
1	1764	7913
1	1783	7914
1	1796	7915
1	1809	7916
1	1807	7917
1	1796	7918
1	1783	7919
1	1764	7920
1	1744	7921
1	1714	7922
1	1690	7923
1	1667	7924
1	1646	7925
1	1626	7926
1	1612	7927
1	1602	7928
1	1593	7929
1	1593	7930
1	1593	7931
1	1600	7932
1	1605	7933
1	1607	7934
1	1602	7935
1	1593	7936
1	1580	7937
1	1567	7938
1	1555	7939
1	1485	7960
1	1482	7961
1	1481	7962
1	1482	7963
1	1481	7964
1	1479	7965
1	1485	7966
1	1495	7967
1	1524	7968
1	1557	7969
1	1597	7970
1	1634	7971
1	1677	7972
1	1710	7973
1	1736	7974
1	1752	7975
1	1762	7976
1	1760	7977
1	1752	7978
1	1739	7979
1	1547	7940
1	1545	7941
1	1548	7942
1	1548	7943
1	1547	7944
1	1555	7945
1	1555	7946
1	1555	7947
1	1554	7948
1	1553	7949
1	1551	7950
1	1553	7951
1	1544	7952
1	1539	7953
1	1536	7954
1	1536	7955
1	1533	7956
1	1517	7957
1	1495	7958
1	1488	7959
1	1727	7980
1	1712	7981
1	1686	7982
1	1661	7983
1	1643	7984
1	1633	7985
1	1631	7986
1	1635	7987
1	1639	7988
1	1646	7989
1	1654	7990
1	1664	7991
1	1675	7992
1	1684	7993
1	1685	7994
1	1679	7995
1	1665	7996
1	1651	7997
1	1638	7998
1	1629	7999
1	1617	8000
1	1608	8000
1	1606	8002
1	1600	8003
1	1596	8004
1	1592	8005
1	1590	8006
1	1592	8007
1	1593	8008
1	1590	8009
1	1585	8010
1	1583	8011
1	1581	8012
1	1581	8013
1	1590	8013
1	1598	8015
1	1607	8016
1	1619	8016
1	1623	8018
1	1622	8019
1	1616	8020
1	1607	8021
1	1607	8022
1	1605	8023
1	1602	8024
1	1599	8025
1	1600	8026
1	1598	8027
1	1602	8028
1	1598	8029
1	1587	8029
1	1578	8031
1	1562	8032
1	1551	8032
1	1544	8034
1	1544	8035
1	1549	8036
1	1557	8037
1	1571	8038
1	1580	8039
1	1582	8040
1	1594	8041
1	1600	8042
1	1607	8043
1	1619	8044
1	1634	8045
1	1652	8045
1	1670	8047
1	1685	8048
1	1695	8048
1	1705	8050
1	1715	8051
1	1726	8052
1	1736	8053
1	1743	8054
1	1745	8055
1	1738	8056
1	1715	8057
1	1692	8058
1	1665	8059
1	1638	8060
1	1607	8061
1	1586	8061
1	1568	8063
1	1555	8064
1	1541	8064
1	1529	8066
1	1518	8067
1	1510	8068
1	1508	8069
1	1517	8070
1	1527	8071
1	1532	8072
1	1541	8073
1	1556	8074
1	1573	8074
1	1584	8076
1	1598	8077
1	1607	8077
1	1605	8079
1	1623	8100
1	1613	8101
1	1602	8102
1	1589	8103
1	1581	8104
1	1572	8105
1	1569	8106
1	1579	8106
1	1594	8108
1	1613	8109
1	1634	8109
1	1647	8111
1	1652	8112
1	1652	8113
1	1656	8114
1	1670	8115
1	1675	8116
1	1674	8117
1	1670	8118
1	1661	8119
1	1603	8080
1	1607	8080
1	1608	8082
1	1610	8083
1	1616	8084
1	1626	8085
1	1636	8086
1	1639	8087
1	1641	8088
1	1641	8089
1	1638	8090
1	1634	8090
1	1636	8092
1	1634	8093
1	1631	8093
1	1626	8095
1	1628	8096
1	1629	8096
1	1631	8098
1	1629	8099
1	1651	8120
1	1638	8121
1	1629	8122
1	1606	8122
1	1580	8124
1	1554	8125
1	1533	8125
1	1518	8127
1	1514	8128
1	1513	8129
1	1519	8130
1	1529	8131
1	1535	8132
1	1546	8133
1	1555	8134
1	1562	8135
1	1574	8136
1	1590	8137
1	1598	8138
1	1600	8138
1	1594	8140
1	1602	8141
1	1594	8141
1	1597	8143
1	1595	8144
1	1593	8145
1	1585	8146
1	1579	8147
1	1573	8148
1	1566	8149
1	1564	8150
1	1567	8151
1	1581	8152
1	1596	8153
1	1611	8154
1	1624	8154
1	1634	8156
1	1634	8157
1	1635	8157
1	1642	8159
1	1647	8160
1	1656	8161
1	1656	8162
1	1657	8163
1	1660	8164
1	1657	8165
1	1647	8166
1	1641	8167
1	1628	8168
1	1613	8169
1	1607	8170
1	1602	8170
1	1595	8172
1	1592	8173
1	1594	8173
1	1605	8175
1	1620	8176
1	1634	8177
1	1655	8178
1	1669	8179
1	1682	8180
1	1688	8181
1	1697	8182
1	1686	8183
1	1665	8184
1	1646	8185
1	1633	8186
1	1623	8186
1	1625	8188
1	1629	8189
1	1641	8189
1	1652	8191
1	1657	8192
1	1661	8193
1	1668	8194
1	1675	8195
1	1684	8196
1	1699	8197
1	1705	8198
1	1705	8199
1	1695	8200
1	1684	8201
1	1679	8202
1	1679	8203
1	1677	8204
1	1674	8205
1	1670	8206
1	1660	8207
1	1648	8208
1	1634	8209
1	1618	8210
1	1604	8211
1	1600	8212
1	1595	8213
1	1599	8214
1	1605	8215
1	1607	8216
1	1617	8217
1	1630	8218
1	1639	8219
1	1647	8220
1	1656	8221
1	1652	8222
1	1651	8223
1	1640	8224
1	1621	8225
1	1605	8226
1	1596	8227
1	1593	8228
1	1598	8229
1	1605	8230
1	1607	8231
1	1607	8232
1	1603	8233
1	1606	8234
1	1607	8235
1	1608	8236
1	1610	8237
1	1616	8238
1	1616	8239
1	1611	8260
1	1613	8261
1	1615	8262
1	1618	8263
1	1607	8264
1	1607	8265
1	1597	8266
1	1584	8267
1	1579	8268
1	1573	8269
1	1570	8270
1	1570	8271
1	1571	8272
1	1575	8273
1	1580	8274
1	1580	8275
1	1577	8276
1	1568	8277
1	1556	8278
1	1541	8279
1	1527	8260
1	1509	8261
1	1499	8262
1	1494	8263
1	1500	8264
1	1518	8265
1	1544	8266
1	1574	8267
1	1609	8268
1	1650	8269
1	1686	8270
1	1716	8271
1	1754	8272
1	1782	8273
1	1817	8274
1	1843	8275
1	1858	8276
1	1869	8277
1	1880	8278
1	1893	8279
1	1841	8300
1	1712	8301
1	1590	8302
1	1465	8303
1	1345	8304
1	1241	8305
1	1158	8306
1	1099	8307
1	1069	8308
1	1058	8309
1	1058	8310
1	1063	8311
1	1063	8312
1	1060	8313
1	1058	8314
1	1055	8315
1	1047	8316
1	1050	8317
1	1050	8318
1	1057	8319
1	1899	8280
1	1907	8281
1	1908	8282
1	1921	8283
1	1940	8284
1	1968	8285
1	2003	8286
1	2056	8287
1	2105	8288
1	2150	8289
1	2196	8290
1	2243	8291
1	2271	8292
1	2287	8293
1	2287	8294
1	2263	8295
1	2212	8296
1	2140	8297
1	2056	8298
1	1955	8299
1	1060	8320
1	1066	8321
1	1062	8322
1	1058	8323
1	1053	8324
1	1055	8325
1	1065	8326
1	1083	8327
1	1110	8328
1	1142	8329
1	1179	8330
1	1211	8331
1	1240	8332
1	1265	8333
1	1296	8334
1	1337	8335
1	1382	8336
1	1426	8337
1	1465	8338
1	1494	8339
1	1511	8340
1	1529	8341
1	1538	8342
1	1547	8343
1	1558	8344
1	1568	8345
1	1571	8346
1	1566	8347
1	1555	8348
1	1546	8349
1	1540	8350
1	1542	8351
1	1535	8352
1	1531	8353
1	1539	8354
1	1550	8355
1	1566	8356
1	1581	8357
1	1605	8358
1	1621	8359
1	1634	8360
1	1635	8361
1	1652	8362
1	1666	8363
1	1682	8364
1	1697	8365
1	1712	8366
1	1729	8367
1	1742	8368
1	1760	8369
1	1773	8370
1	1782	8371
1	1776	8372
1	1775	8373
1	1773	8374
1	1766	8375
1	1760	8376
1	1752	8377
1	1741	8378
1	1731	8379
1	1721	8380
1	1712	8381
1	1705	8382
1	1699	8383
1	1688	8384
1	1680	8385
1	1670	8386
1	1659	8387
1	1659	8388
1	1665	8389
1	1679	8390
1	1690	8391
1	1708	8392
1	1715	8393
1	1724	8394
1	1728	8395
1	1729	8396
1	1728	8397
1	1724	8398
1	1716	8399
1	1712	8400
1	1710	8401
1	1700	8402
1	1685	8403
1	1678	8404
1	1683	8405
1	1695	8406
1	1707	8407
1	1707	8408
1	1707	8409
1	1712	8410
1	1726	8411
1	1746	8412
1	1768	8413
1	1785	8414
1	1791	8415
1	1796	8416
1	1798	8417
1	1800	8418
1	1796	8419
1	1791	8420
1	1789	8421
1	1791	8422
1	1788	8423
1	1776	8424
1	1764	8425
1	1754	8426
1	1751	8427
1	1756	8428
1	1770	8429
1	1791	8430
1	1811	8431
1	1817	8432
1	1816	8433
1	1814	8434
1	1808	8435
1	1800	8436
1	1801	8437
1	1793	8438
1	1787	8439
1	1770	8440
1	1765	8441
1	1751	8442
1	1742	8443
1	1736	8444
1	1731	8445
1	1728	8446
1	1724	8447
1	1718	8448
1	1708	8449
1	1703	8450
1	1705	8451
1	1710	8452
1	1711	8453
1	1712	8454
1	1719	8455
1	1738	8456
1	1751	8457
1	1770	8458
1	1796	8459
1	1826	8460
1	1850	8461
1	1861	8462
1	1869	8463
1	1869	8464
1	1869	8465
1	1877	8466
1	1898	8467
1	1908	8468
1	1920	8469
1	1924	8470
1	1925	8471
1	1921	8472
1	1911	8473
1	1899	8474
1	1890	8475
1	1871	8476
1	1854	8477
1	1843	8478
1	1838	8479
1	1841	8480
1	1843	8481
1	1857	8482
1	1863	8483
1	1873	8484
1	1895	8485
1	1922	8486
1	1945	8487
1	1961	8488
1	1970	8489
1	1974	8490
1	1978	8491
1	1983	8492
1	1993	8493
1	2002	8494
1	2013	8495
1	2021	8496
1	2028	8497
1	2026	8498
1	2022	8499
1	2017	8500
1	2011	8501
1	2017	8502
1	2021	8503
1	2025	8504
1	2029	8505
1	2037	8506
1	2030	8507
1	2026	8508
1	2014	8509
1	1994	8510
1	1963	8511
1	1935	8512
1	1906	8513
1	1872	8514
1	1856	8515
1	1843	8516
1	1835	8517
1	1838	8518
1	1854	8519
1	1869	8520
1	1890	8521
1	1904	8522
1	1924	8523
1	1948	8524
1	1968	8525
1	1983	8526
1	2003	8527
1	2012	8528
1	2024	8529
1	2044	8530
1	2070	8531
1	2094	8532
1	2106	8533
1	2110	8534
1	2106	8535
1	2104	8536
1	2089	8537
1	2075	8538
1	2053	8539
1	2034	8540
1	2017	8541
1	2011	8542
1	2012	8543
1	2006	8544
1	2001	8545
1	2000	8546
1	1998	8547
1	1986	8548
1	1971	8549
1	1956	8550
1	1942	8551
1	1922	8552
1	1906	8553
1	1893	8554
1	1879	8555
1	1870	8556
1	1869	8557
1	1872	8558
1	1870	8559
1	1874	8560
1	1869	8561
1	1865	8562
1	1854	8563
1	1843	8564
1	1828	8565
1	1817	8566
1	1796	8567
1	1791	8568
1	1791	8569
1	1792	8570
1	1796	8571
1	1808	8572
1	1800	8573
1	1790	8574
1	1773	8575
1	1756	8576
1	1734	8577
1	1710	8578
1	1690	8579
1	1683	8580
1	1676	8581
1	1663	8582
1	1658	8583
1	1647	8584
1	1643	8585
1	1643	8586
1	1647	8587
1	1641	8588
1	1629	8589
1	1609	8590
1	1595	8591
1	1581	8592
1	1574	8593
1	1568	8594
1	1572	8595
1	1581	8596
1	1593	8597
1	1603	8598
1	1613	8599
1	1622	8600
1	1625	8601
1	1634	8602
1	1631	8603
1	1620	8604
1	1607	8605
1	1582	8606
1	1555	8607
1	1529	8608
1	1508	8609
1	1495	8610
1	1491	8611
1	1494	8612
1	1503	8613
1	1516	8614
1	1528	8615
1	1535	8616
1	1553	8617
1	1565	8618
1	1580	8619
1	1587	8620
1	1593	8621
1	1599	8622
1	1607	8623
1	1613	8624
1	1618	8625
1	1616	8626
1	1602	8627
1	1585	8628
1	1561	8629
1	1539	8630
1	1521	8631
1	1512	8632
1	1503	8633
1	1502	8634
1	1512	8635
1	1530	8636
1	1554	8637
1	1580	8638
1	1586	8639
1	1597	8640
1	1607	8641
1	1607	8642
1	1607	8643
1	1607	8644
1	1603	8645
1	1603	8646
1	1602	8647
1	1602	8648
1	1600	8649
1	1595	8650
1	1599	8651
1	1603	8652
1	1612	8653
1	1621	8654
1	1626	8655
1	1625	8656
1	1612	8657
1	1605	8658
1	1595	8659
1	1584	8660
1	1581	8661
1	1581	8662
1	1574	8663
1	1563	8664
1	1551	8665
1	1540	8666
1	1541	8667
1	1554	8668
1	1575	8669
1	1602	8670
1	1628	8671
1	1645	8672
1	1656	8673
1	1657	8674
1	1652	8675
1	1647	8676
1	1646	8677
1	1637	8678
1	1631	8679
1	1609	8680
1	1589	8681
1	1575	8682
1	1567	8683
1	1564	8684
1	1557	8685
1	1554	8686
1	1552	8687
1	1554	8688
1	1559	8689
1	1574	8690
1	1584	8691
1	1604	8692
1	1613	8693
1	1622	8694
1	1629	8695
1	1633	8696
1	1638	8697
1	1646	8698
1	1652	8699
1	1659	8700
1	1655	8701
1	1660	8702
1	1664	8703
1	1661	8704
1	1648	8705
1	1634	8706
1	1622	8707
1	1608	8708
1	1595	8709
1	1581	8710
1	1568	8711
1	1559	8712
1	1557	8713
1	1560	8714
1	1555	8715
1	1553	8716
1	1554	8717
1	1561	8718
1	1570	8719
1	1581	8720
1	1590	8721
1	1602	8722
1	1606	8723
1	1609	8724
1	1613	8725
1	1618	8726
1	1618	8727
1	1611	8728
1	1607	8729
1	1608	8730
1	1620	8731
1	1636	8732
1	1655	8733
1	1674	8734
1	1686	8735
1	1687	8736
1	1682	8737
1	1660	8738
1	1637	8739
1	1607	8740
1	1587	8741
1	1556	8742
1	1539	8743
1	1528	8744
1	1525	8745
1	1528	8746
1	1531	8747
1	1538	8748
1	1544	8749
1	1555	8750
1	1566	8751
1	1579	8752
1	1582	8753
1	1587	8754
1	1589	8755
1	1594	8756
1	1596	8757
1	1596	8758
1	1599	8759
1	1597	8760
1	1585	8761
1	1572	8762
1	1563	8763
1	1559	8764
1	1556	8765
1	1555	8766
1	1559	8767
1	1561	8768
1	1566	8769
1	1577	8770
1	1582	8771
1	1584	8772
1	1589	8773
1	1598	8774
1	1611	8775
1	1631	8776
1	1641	8777
1	1647	8778
1	1647	8779
1	1642	8780
1	1634	8781
1	1633	8782
1	1625	8783
1	1613	8784
1	1598	8785
1	1585	8786
1	1579	8787
1	1580	8788
1	1593	8789
1	1607	8790
1	1618	8791
1	1625	8792
1	1639	8793
1	1652	8794
1	1662	8795
1	1662	8796
1	1660	8797
1	1648	8798
1	1633	8799
1	1616	8800
1	1602	8801
1	1593	8802
1	1580	8803
1	1565	8804
1	1551	8805
1	1537	8806
1	1526	8807
1	1518	8808
1	1520	8809
1	1526	8810
1	1533	8811
1	1554	8812
1	1573	8813
1	1595	8814
1	1615	8815
1	1631	8816
1	1639	8817
1	1636	8818
1	1633	8819
1	1643	8840
1	1642	8841
1	1626	8842
1	1618	8843
1	1611	8844
1	1608	8845
1	1620	8846
1	1631	8847
1	1642	8848
1	1654	8849
1	1664	8850
1	1674	8851
1	1677	8852
1	1682	8853
1	1686	8854
1	1684	8855
1	1668	8856
1	1636	8857
1	1610	8858
1	1584	8859
1	1623	8820
1	1613	8821
1	1607	8822
1	1607	8823
1	1607	8824
1	1602	8825
1	1599	8826
1	1607	8827
1	1606	8828
1	1607	8829
1	1610	8830
1	1616	8831
1	1616	8832
1	1616	8833
1	1618	8834
1	1625	8835
1	1634	8836
1	1636	8837
1	1643	8838
1	1645	8839
1	1571	8860
1	1557	8861
1	1554	8862
1	1553	8863
1	1555	8864
1	1561	8865
1	1576	8866
1	1587	8867
1	1607	8868
1	1621	8869
1	1634	8870
1	1644	8871
1	1647	8872
1	1657	8873
1	1665	8874
1	1672	8875
1	1681	8876
1	1686	8877
1	1693	8878
1	1699	8879
1	1708	8880
1	1716	8881
1	1721	8882
1	1724	8883
1	1724	8884
1	1725	8885
1	1725	8886
1	1727	8887
1	1719	8888
1	1721	8889
1	1724	8890
1	1728	8891
1	1734	8892
1	1738	8893
1	1737	8894
1	1726	8895
1	1715	8896
1	1693	8897
1	1672	8898
1	1649	8899
1	1626	8900
1	1602	8901
1	1581	8902
1	1561	8903
1	1541	8904
1	1526	8905
1	1517	8906
1	1507	8907
1	1503	8908
1	1503	8909
1	1508	8910
1	1520	8911
1	1529	8912
1	1537	8913
1	1546	8914
1	1556	8915
1	1575	8916
1	1595	8917
1	1611	8918
1	1620	8919
1	1510	8940
1	1525	8941
1	1544	8942
1	1570	8943
1	1598	8944
1	1633	8945
1	1660	8946
1	1683	8947
1	1699	8948
1	1711	8949
1	1713	8950
1	1718	8951
1	1716	8952
1	1714	8953
1	1718	8954
1	1718	8955
1	1716	8956
1	1715	8957
1	1729	8958
1	1752	8959
1	1623	8920
1	1621	8921
1	1615	8922
1	1611	8923
1	1618	8924
1	1625	8925
1	1625	8926
1	1610	8927
1	1597	8928
1	1581	8929
1	1563	8930
1	1546	8931
1	1540	8932
1	1530	8933
1	1525	8934
1	1512	8935
1	1503	8936
1	1495	8937
1	1499	8938
1	1503	8939
1	1782	8960
1	1815	8961
1	1855	8962
1	1885	8963
1	1917	8964
1	1953	8965
1	1998	8966
1	2040	8967
1	2086	8968
1	2133	8969
1	2183	8970
1	2235	8971
1	2271	8972
1	2302	8973
1	2322	8974
1	2323	8975
1	2304	8976
1	2262	8977
1	2174	8978
1	2066	8979
1	1935	8980
1	1803	8981
1	1678	8982
1	1562	8983
1	1456	8984
1	1351	8985
1	1265	8986
1	1188	8987
1	1134	8988
1	1103	8989
1	1096	8990
1	1101	8991
1	1110	8992
1	1113	8993
1	1110	8994
1	1100	8995
1	1089	8996
1	1084	8997
1	1081	8998
1	1080	8999
1	1075	9000
1	1071	9001
1	1067	9002
1	1058	9003
1	1052	9004
1	1055	9005
1	1062	9006
1	1084	9007
1	1106	9008
1	1127	9009
1	1148	9010
1	1166	9011
1	1188	9012
1	1214	9013
1	1236	9014
1	1251	9015
1	1268	9016
1	1286	9017
1	1319	9018
1	1356	9019
1	1398	9020
1	1433	9021
1	1471	9022
1	1499	9023
1	1528	9024
1	1553	9025
1	1579	9026
1	1603	9027
1	1620	9028
1	1632	9029
1	1636	9030
1	1641	9031
1	1643	9032
1	1646	9033
1	1647	9034
1	1643	9035
1	1634	9036
1	1637	9037
1	1635	9038
1	1636	9039
1	1634	9040
1	1646	9041
1	1643	9042
1	1638	9043
1	1634	9044
1	1621	9045
1	1609	9046
1	1607	9047
1	1611	9048
1	1620	9049
1	1628	9050
1	1639	9051
1	1657	9052
1	1686	9053
1	1710	9054
1	1727	9055
1	1748	9056
1	1762	9057
1	1775	9058
1	1785	9059
1	1883	9100
1	1893	9101
1	1895	9102
1	1890	9103
1	1875	9104
1	1856	9105
1	1834	9106
1	1791	9107
1	1764	9108
1	1738	9109
1	1715	9110
1	1698	9111
1	1692	9112
1	1691	9113
1	1698	9114
1	1703	9115
1	1707	9116
1	1710	9117
1	1712	9118
1	1714	9119
1	1787	9060
1	1777	9061
1	1752	9062
1	1737	9063
1	1717	9064
1	1705	9065
1	1695	9066
1	1695	9067
1	1690	9068
1	1699	9069
1	1719	9070
1	1743	9071
1	1764	9072
1	1785	9073
1	1792	9074
1	1785	9075
1	1767	9076
1	1743	9077
1	1728	9078
1	1712	9079
1	1698	9080
1	1686	9081
1	1678	9082
1	1668	9083
1	1662	9084
1	1659	9085
1	1652	9086
1	1647	9087
1	1638	9088
1	1634	9089
1	1634	9090
1	1638	9091
1	1646	9092
1	1668	9093
1	1706	9094
1	1751	9095
1	1786	9096
1	1822	9097
1	1850	9098
1	1870	9099
1	1870	9140
1	1846	9141
1	1817	9142
1	1791	9143
1	1769	9144
1	1746	9145
1	1749	9146
1	1756	9147
1	1773	9148
1	1799	9149
1	1826	9150
1	1842	9151
1	1843	9152
1	1849	9153
1	1855	9154
1	1859	9155
1	1868	9156
1	1863	9157
1	1861	9158
1	1857	9159
1	1717	9120
1	1721	9121
1	1723	9122
1	1731	9123
1	1746	9124
1	1764	9125
1	1783	9126
1	1817	9127
1	1836	9128
1	1854	9129
1	1868	9130
1	1883	9131
1	1903	9132
1	1922	9133
1	1943	9134
1	1953	9135
1	1958	9136
1	1939	9137
1	1921	9138
1	1896	9139
1	1856	9160
1	1860	9161
1	1859	9162
1	1862	9163
1	1867	9164
1	1868	9165
1	1869	9166
1	1869	9167
1	1877	9168
1	1895	9169
1	1917	9170
1	1940	9171
1	1965	9172
1	1983	9173
1	1999	9174
1	2010	9175
1	2014	9176
1	2013	9177
1	2006	9178
1	2000	9179
1	1995	9180
1	1991	9181
1	1984	9182
1	1989	9183
1	1997	9184
1	2000	9185
1	2000	9186
1	2002	9187
1	1998	9188
1	1992	9189
1	1991	9190
1	1996	9191
1	1999	9192
1	1999	9193
1	1998	9194
1	1989	9195
1	1980	9196
1	1961	9197
1	1948	9198
1	1935	9199
1	1931	9200
1	1930	9201
1	1940	9202
1	1950	9203
1	1966	9204
1	1983	9205
1	1999	9206
1	2012	9207
1	2023	9208
1	2029	9209
1	2037	9210
1	2047	9211
1	2057	9212
1	2066	9213
1	2078	9214
1	2088	9215
1	2101	9216
1	2119	9217
1	2127	9218
1	2130	9219
1	2125	9220
1	2116	9221
1	2102	9222
1	2078	9223
1	2052	9224
1	2018	9225
1	1986	9226
1	1945	9227
1	1911	9228
1	1881	9229
1	1863	9230
1	1856	9231
1	1869	9232
1	1882	9233
1	1896	9234
1	1917	9235
1	1935	9236
1	1948	9237
1	1937	9238
1	1920	9239
1	1909	9240
1	1899	9241
1	1890	9242
1	1881	9243
1	1875	9244
1	1881	9245
1	1890	9246
1	1895	9247
1	1908	9248
1	1917	9249
1	1921	9250
1	1917	9251
1	1913	9252
1	1908	9253
1	1899	9254
1	1886	9255
1	1869	9256
1	1845	9257
1	1824	9258
1	1793	9259
1	1676	9280
1	1674	9281
1	1673	9282
1	1671	9283
1	1666	9284
1	1660	9285
1	1654	9286
1	1639	9287
1	1633	9288
1	1621	9289
1	1609	9290
1	1603	9291
1	1606	9292
1	1603	9293
1	1595	9294
1	1590	9295
1	1581	9296
1	1579	9297
1	1571	9298
1	1564	9299
1	1760	9260
1	1719	9261
1	1670	9262
1	1634	9263
1	1593	9264
1	1556	9265
1	1537	9266
1	1517	9267
1	1508	9268
1	1508	9269
1	1517	9270
1	1526	9271
1	1525	9272
1	1535	9273
1	1555	9274
1	1587	9275
1	1618	9276
1	1648	9277
1	1667	9278
1	1673	9279
1	1547	9300
1	1530	9301
1	1520	9302
1	1514	9303
1	1516	9304
1	1521	9305
1	1526	9306
1	1539	9307
1	1546	9308
1	1559	9309
1	1576	9310
1	1587	9311
1	1597	9312
1	1606	9313
1	1606	9314
1	1603	9315
1	1600	9316
1	1584	9317
1	1569	9318
1	1555	9319
1	1544	9320
1	1537	9321
1	1535	9322
1	1539	9323
1	1553	9324
1	1563	9325
1	1573	9326
1	1575	9327
1	1580	9328
1	1582	9329
1	1587	9330
1	1593	9331
1	1589	9332
1	1590	9333
1	1592	9334
1	1593	9335
1	1602	9336
1	1618	9337
1	1625	9338
1	1616	9339
1	1567	9360
1	1544	9361
1	1535	9362
1	1538	9363
1	1547	9364
1	1559	9365
1	1575	9366
1	1593	9367
1	1598	9368
1	1595	9369
1	1593	9370
1	1587	9371
1	1591	9372
1	1603	9373
1	1618	9374
1	1632	9375
1	1638	9376
1	1636	9377
1	1636	9378
1	1639	9379
1	1608	9340
1	1596	9341
1	1581	9342
1	1574	9343
1	1575	9344
1	1579	9345
1	1584	9346
1	1596	9347
1	1608	9348
1	1624	9349
1	1631	9350
1	1634	9351
1	1638	9352
1	1651	9353
1	1649	9354
1	1649	9355
1	1652	9356
1	1639	9357
1	1620	9358
1	1593	9359
1	1644	9380
1	1649	9381
1	1660	9382
1	1668	9383
1	1669	9384
1	1664	9385
1	1659	9386
1	1647	9387
1	1634	9388
1	1632	9389
1	1629	9390
1	1621	9391
1	1599	9392
1	1582	9393
1	1570	9394
1	1566	9395
1	1556	9396
1	1553	9397
1	1546	9398
1	1543	9399
1	1536	9400
1	1546	9401
1	1554	9402
1	1556	9403
1	1555	9404
1	1554	9405
1	1548	9406
1	1539	9407
1	1539	9408
1	1544	9409
1	1555	9410
1	1569	9411
1	1596	9412
1	1620	9413
1	1639	9414
1	1649	9415
1	1656	9416
1	1661	9417
1	1663	9418
1	1662	9419
1	1567	9440
1	1577	9441
1	1589	9442
1	1597	9443
1	1603	9444
1	1603	9445
1	1607	9446
1	1607	9447
1	1612	9448
1	1616	9449
1	1612	9450
1	1607	9451
1	1595	9452
1	1594	9453
1	1598	9454
1	1602	9455
1	1594	9456
1	1581	9457
1	1562	9458
1	1540	9459
1	1668	9420
1	1675	9421
1	1681	9422
1	1686	9423
1	1686	9424
1	1685	9425
1	1681	9426
1	1673	9427
1	1654	9428
1	1626	9429
1	1602	9430
1	1581	9431
1	1567	9432
1	1556	9433
1	1553	9434
1	1554	9435
1	1555	9436
1	1555	9437
1	1559	9438
1	1564	9439
1	1518	9460
1	1492	9461
1	1479	9462
1	1488	9463
1	1508	9464
1	1531	9465
1	1555	9466
1	1564	9467
1	1567	9468
1	1575	9469
1	1585	9470
1	1598	9471
1	1610	9472
1	1615	9473
1	1618	9474
1	1620	9475
1	1628	9476
1	1644	9477
1	1660	9478
1	1671	9479
1	1572	9500
1	1571	9501
1	1577	9502
1	1575	9503
1	1578	9504
1	1573	9505
1	1564	9506
1	1559	9507
1	1560	9508
1	1562	9509
1	1566	9510
1	1578	9511
1	1592	9512
1	1607	9513
1	1618	9514
1	1625	9515
1	1629	9516
1	1634	9517
1	1632	9518
1	1626	9519
1	1674	9480
1	1680	9481
1	1679	9482
1	1686	9483
1	1697	9484
1	1698	9485
1	1699	9486
1	1696	9487
1	1681	9488
1	1661	9489
1	1644	9490
1	1634	9491
1	1623	9492
1	1612	9493
1	1607	9494
1	1604	9495
1	1605	9496
1	1600	9497
1	1592	9498
1	1581	9499
1	1588	9540
1	1593	9541
1	1596	9542
1	1607	9543
1	1619	9544
1	1632	9545
1	1644	9546
1	1660	9547
1	1680	9548
1	1701	9549
1	1721	9550
1	1748	9551
1	1756	9552
1	1763	9553
1	1764	9554
1	1762	9555
1	1760	9556
1	1749	9557
1	1741	9558
1	1737	9559
1	1620	9520
1	1618	9521
1	1616	9522
1	1612	9523
1	1607	9524
1	1600	9525
1	1594	9526
1	1589	9527
1	1594	9528
1	1610	9529
1	1634	9530
1	1657	9531
1	1674	9532
1	1674	9533
1	1664	9534
1	1651	9535
1	1634	9536
1	1611	9537
1	1597	9538
1	1586	9539
1	1655	9580
1	1646	9581
1	1640	9582
1	1634	9583
1	1625	9584
1	1610	9585
1	1596	9586
1	1579	9587
1	1568	9588
1	1568	9589
1	1581	9590
1	1598	9591
1	1621	9592
1	1636	9593
1	1652	9594
1	1669	9595
1	1683	9596
1	1688	9597
1	1693	9598
1	1689	9599
1	1729	9560
1	1713	9561
1	1699	9562
1	1683	9563
1	1670	9564
1	1661	9565
1	1658	9566
1	1658	9567
1	1660	9568
1	1665	9569
1	1678	9570
1	1681	9571
1	1681	9572
1	1685	9573
1	1688	9574
1	1688	9575
1	1688	9576
1	1686	9577
1	1678	9578
1	1665	9579
1	1670	9600
1	1649	9601
1	1626	9602
1	1600	9603
1	1577	9604
1	1555	9605
1	1542	9606
1	1538	9607
1	1539	9608
1	1551	9609
1	1568	9610
1	1584	9611
1	1592	9612
1	1590	9613
1	1582	9614
1	1579	9615
1	1581	9616
1	1583	9617
1	1592	9618
1	1604	9619
1	1613	9620
1	1616	9621
1	1621	9622
1	1620	9623
1	1619	9624
1	1620	9625
1	1623	9626
1	1629	9627
1	1633	9628
1	1636	9629
1	1649	9630
1	1664	9631
1	1671	9632
1	1674	9633
1	1679	9634
1	1683	9635
1	1690	9636
1	1705	9637
1	1708	9638
1	1698	9639
1	1693	9640
1	1698	9641
1	1694	9642
1	1710	9643
1	1746	9644
1	1791	9645
1	1858	9646
1	1922	9647
1	1992	9648
1	2060	9649
1	2121	9650
1	2174	9651
1	2222	9652
1	2263	9653
1	2290	9654
1	2309	9655
1	2316	9656
1	2306	9657
1	2280	9658
1	2240	9659
1	2188	9660
1	2129	9661
1	2030	9662
1	1953	9663
1	1856	9664
1	1751	9665
1	1647	9666
1	1550	9667
1	1450	9668
1	1357	9669
1	1281	9670
1	1223	9671
1	1175	9672
1	1142	9673
1	1126	9674
1	1116	9675
1	1106	9676
1	1089	9677
1	1076	9678
1	1062	9679
1	1054	9680
1	1047	9681
1	1045	9682
1	1045	9683
1	1044	9684
1	1045	9685
1	1046	9686
1	1050	9687
1	1059	9688
1	1079	9689
1	1101	9690
1	1128	9691
1	1150	9692
1	1171	9693
1	1192	9694
1	1215	9695
1	1240	9696
1	1268	9697
1	1291	9698
1	1306	9699
1	1322	9700
1	1337	9701
1	1346	9702
1	1366	9703
1	1384	9704
1	1412	9705
1	1438	9706
1	1471	9707
1	1512	9708
1	1557	9709
1	1598	9710
1	1631	9711
1	1656	9712
1	1661	9713
1	1665	9714
1	1670	9715
1	1672	9716
1	1675	9717
1	1669	9718
1	1654	9719
1	1630	9720
1	1602	9721
1	1573	9722
1	1558	9723
1	1555	9724
1	1566	9725
1	1583	9726
1	1612	9727
1	1646	9728
1	1679	9729
1	1710	9730
1	1736	9731
1	1757	9732
1	1778	9733
1	1796	9734
1	1808	9735
1	1801	9736
1	1779	9737
1	1753	9738
1	1721	9739
1	1686	9740
1	1649	9741
1	1625	9742
1	1598	9743
1	1579	9744
1	1572	9745
1	1586	9746
1	1608	9747
1	1638	9748
1	1675	9749
1	1707	9750
1	1725	9751
1	1738	9752
1	1751	9753
1	1764	9754
1	1777	9755
1	1788	9756
1	1791	9757
1	1782	9758
1	1772	9759
1	1767	9760
1	1755	9761
1	1738	9762
1	1726	9763
1	1723	9764
1	1724	9765
1	1728	9766
1	1730	9767
1	1736	9768
1	1742	9769
1	1750	9770
1	1754	9771
1	1764	9772
1	1767	9773
1	1767	9774
1	1764	9775
1	1765	9776
1	1769	9777
1	1769	9778
1	1770	9779
1	1765	9780
1	1759	9781
1	1738	9782
1	1725	9783
1	1712	9784
1	1707	9785
1	1708	9786
1	1719	9787
1	1729	9788
1	1742	9789
1	1762	9790
1	1777	9791
1	1791	9792
1	1811	9793
1	1826	9794
1	1841	9795
1	1843	9796
1	1829	9797
1	1819	9798
1	1811	9799
1	1795	9800
1	1783	9801
1	1778	9802
1	1772	9803
1	1768	9804
1	1767	9805
1	1769	9806
1	1774	9807
1	1775	9808
1	1787	9809
1	1798	9810
1	1818	9811
1	1830	9812
1	1841	9813
1	1843	9814
1	1847	9815
1	1850	9816
1	1856	9817
1	1856	9818
1	1856	9819
1	1852	9820
1	1848	9821
1	1843	9822
1	1843	9823
1	1847	9824
1	1854	9825
1	1860	9826
1	1854	9827
1	1850	9828
1	1843	9829
1	1844	9830
1	1845	9831
1	1856	9832
1	1864	9833
1	1872	9834
1	1888	9835
1	1900	9836
1	1904	9837
1	1896	9838
1	1881	9839
1	2014	9860
1	2008	9861
1	2003	9862
1	1994	9863
1	1987	9864
1	1976	9865
1	1968	9866
1	1959	9867
1	1950	9868
1	1947	9869
1	1947	9870
1	1950	9871
1	1948	9872
1	1949	9873
1	1950	9874
1	1949	9875
1	1950	9876
1	1962	9877
1	1969	9878
1	1974	9879
1	1872	9860
1	1867	9861
1	1867	9862
1	1869	9863
1	1873	9864
1	1888	9865
1	1900	9866
1	1917	9867
1	1925	9868
1	1937	9869
1	1948	9870
1	1969	9871
1	1975	9872
1	1987	9873
1	2001	9874
1	2018	9875
1	2030	9876
1	2034	9877
1	2027	9878
1	2023	9879
1	1985	9880
1	2000	9881
1	2021	9882
1	2037	9883
1	2052	9884
1	2070	9885
1	2074	9886
1	2058	9887
1	2052	9888
1	2042	9889
1	2039	9890
1	2042	9891
1	2053	9892
1	2058	9893
1	2063	9894
1	2067	9895
1	2071	9896
1	2071	9897
1	2066	9898
1	2054	9899
1	2049	9900
1	2047	9901
1	2040	9902
1	2035	9903
1	2026	9904
1	2012	9905
1	1994	9906
1	1978	9907
1	1962	9908
1	1946	9909
1	1935	9910
1	1932	9911
1	1935	9912
1	1942	9913
1	1953	9914
1	1973	9915
1	1991	9916
1	2000	9917
1	2005	9918
1	2001	9919
1	1987	9920
1	1975	9921
1	1975	9922
1	1961	9923
1	1943	9924
1	1926	9925
1	1911	9926
1	1895	9927
1	1883	9928
1	1872	9929
1	1863	9930
1	1857	9931
1	1846	9932
1	1844	9933
1	1845	9934
1	1842	9935
1	1827	9936
1	1817	9937
1	1796	9938
1	1782	9939
1	1774	9940
1	1774	9941
1	1764	9942
1	1753	9943
1	1751	9944
1	1754	9945
1	1760	9946
1	1767	9947
1	1778	9948
1	1790	9949
1	1791	9950
1	1780	9951
1	1759	9952
1	1736	9953
1	1718	9954
1	1706	9955
1	1690	9956
1	1675	9957
1	1660	9958
1	1647	9959
1	1634	9960
1	1618	9961
1	1597	9962
1	1589	9963
1	1580	9964
1	1575	9965
1	1576	9966
1	1582	9967
1	1584	9968
1	1585	9969
1	1582	9970
1	1581	9971
1	1577	9972
1	1574	9973
1	1578	9974
1	1582	9975
1	1591	9976
1	1591	9977
1	1595	9978
1	1602	9979
1	1607	9980
1	1620	9981
1	1634	9982
1	1638	9983
1	1634	9984
1	1629	9985
1	1619	9986
1	1607	9987
1	1594	9988
1	1587	9989
1	1582	9990
1	1581	9991
1	1579	9992
1	1580	9993
1	1586	9994
1	1596	9995
1	1605	9996
1	1607	9997
1	1607	9998
1	1596	9999
1	1581	10000
1	1559	10001
1	1541	10002
1	1527	10003
1	1516	10004
1	1517	10005
1	1526	10006
1	1529	10007
1	1533	10008
1	1543	10009
1	1555	10010
1	1572	10011
1	1593	10012
1	1602	10013
1	1613	10014
1	1629	10015
1	1642	10016
1	1652	10017
1	1656	10018
1	1655	10019
1	1651	10020
1	1638	10021
1	1612	10022
1	1593	10023
1	1581	10024
1	1580	10025
1	1581	10026
1	1585	10027
1	1580	10028
1	1574	10029
1	1571	10030
1	1580	10031
1	1595	10032
1	1618	10033
1	1643	10034
1	1670	10035
1	1699	10036
1	1721	10037
1	1742	10038
1	1759	10039
1	1764	10040
1	1760	10041
1	1764	10042
1	1753	10043
1	1736	10044
1	1714	10045
1	1678	10046
1	1644	10047
1	1607	10048
1	1581	10049
1	1560	10050
1	1554	10051
1	1551	10052
1	1555	10053
1	1569	10054
1	1584	10055
1	1597	10056
1	1602	10057
1	1600	10058
1	1594	10059
1	1584	10060
1	1580	10061
1	1564	10062
1	1554	10063
1	1545	10064
1	1551	10065
1	1558	10066
1	1567	10067
1	1580	10068
1	1593	10069
1	1611	10070
1	1634	10071
1	1665	10072
1	1686	10073
1	1708	10074
1	1723	10075
1	1726	10076
1	1724	10077
1	1714	10078
1	1695	10079
1	1665	10080
1	1634	10081
1	1596	10082
1	1577	10083
1	1556	10084
1	1543	10085
1	1530	10086
1	1530	10087
1	1529	10088
1	1536	10089
1	1544	10090
1	1551	10091
1	1555	10092
1	1556	10093
1	1559	10094
1	1562	10095
1	1573	10096
1	1579	10097
1	1584	10098
1	1591	10099
1	1587	10100
1	1581	10101
1	1581	10102
1	1580	10103
1	1581	10104
1	1589	10105
1	1594	10106
1	1598	10107
1	1607	10108
1	1616	10109
1	1629	10110
1	1647	10111
1	1660	10112
1	1679	10113
1	1690	10114
1	1688	10115
1	1678	10116
1	1664	10117
1	1644	10118
1	1619	10119
1	1592	10120
1	1567	10121
1	1547	10122
1	1530	10123
1	1521	10124
1	1515	10125
1	1517	10126
1	1518	10127
1	1523	10128
1	1529	10129
1	1539	10130
1	1554	10131
1	1575	10132
1	1586	10133
1	1594	10134
1	1599	10135
1	1603	10136
1	1607	10137
1	1611	10138
1	1608	10139
1	1609	10140
1	1610	10141
1	1613	10142
1	1620	10143
1	1621	10144
1	1623	10145
1	1626	10146
1	1633	10147
1	1634	10148
1	1634	10149
1	1636	10150
