#Date:= 2024-10-08T15:56:43.862809
#Sampling Rate(Hz):= 1000
#Labels:= LOD	ECG	TS
1	1544	20
1	1542	21
1	1556	22
1	1585	23
1	1621	24
1	1663	25
1	1708	26
1	1749	27
1	1782	28
1	1828	29
1	1875	30
1	1922	31
1	1960	32
1	1975	33
1	1587	34
1	1539	35
1	1490	36
1	1450	37
1	1417	38
1	1393	39
1	1372	40
1	1372	41
1	1379	42
1	1398	43
1	1425	44
1	1466	45
1	1515	46
1	1559	47
1	1598	48
1	1623	49
1	1642	50
1	1649	51
1	1648	52
1	1635	53
1	1616	54
1	1593	55
1	1567	56
1	1538	57
1	1495	58
1	1469	59
1	1456	60
1	1459	61
1	1465	62
1	1482	63
1	1503	64
1	1534	65
1	1567	66
1	1603	67
1	1635	68
1	1660	69
1	1657	70
1	1631	71
1	1602	72
1	1582	73
1	1569	74
1	1553	75
1	1529	76
1	1505	77
1	1487	78
1	1465	79
1	1445	80
1	1437	81
1	1440	82
1	1461	83
1	1496	84
1	1542	85
1	1595	86
1	1646	87
1	1679	88
1	1700	89
1	1713	90
1	1719	91
1	1715	92
1	1718	93
1	1711	94
1	1686	95
1	1647	96
1	1596	97
1	1546	98
1	1499	99
1	1466	100
1	1456	101
1	1467	102
1	1481	103
1	1508	104
1	1544	105
1	1594	106
1	1646	107
1	1694	108
1	1725	109
1	1744	110
1	1742	111
1	1728	112
1	1701	113
1	1668	114
1	1633	115
1	1589	116
1	1543	117
1	1494	118
1	1459	119
1	1439	120
1	1435	121
1	1443	122
1	1467	123
1	1503	124
1	1554	125
1	1607	126
1	1652	127
1	1687	128
1	1721	129
1	1751	130
1	1772	131
1	1773	132
1	1761	133
1	1738	134
1	1707	135
1	1660	136
1	1608	137
1	1564	138
1	1529	139
1	1507	140
1	1503	141
1	1510	142
1	1530	143
1	1556	144
1	1589	145
1	1623	146
1	1659	147
1	1686	148
1	1716	149
1	1744	150
1	1751	151
1	1749	152
1	1739	153
1	1715	154
1	1688	155
1	1654	156
1	1611	157
1	1572	158
1	1539	159
1	1517	160
1	1508	161
1	1517	162
1	1530	163
1	1564	164
1	1607	165
1	1660	166
1	1705	167
1	1750	168
1	1783	169
1	1812	170
1	1828	171
1	1837	172
1	1834	173
1	1818	174
1	1799	175
1	1774	176
1	1746	177
1	1711	178
1	1680	179
1	1659	180
1	1643	181
1	1639	182
1	1659	183
1	1686	184
1	1712	185
1	1737	186
1	1764	187
1	1791	188
1	1818	189
1	1833	190
1	1832	191
1	1819	192
1	1791	193
1	1766	194
1	1747	195
1	1737	196
1	1733	197
1	1738	198
1	1742	199
1	1739	200
1	1733	201
1	1731	202
1	1733	203
1	1738	204
1	1754	205
1	1780	206
1	1816	207
1	1841	208
1	1856	209
1	1861	210
1	1856	211
1	1842	212
1	1818	213
1	1790	214
1	1759	215
1	1720	216
1	1669	217
1	1616	218
1	1571	219
1	1420	240
1	1402	241
1	1399	242
1	1416	243
1	1442	244
1	1474	245
1	1505	246
1	1544	247
1	1585	248
1	1620	249
1	1648	250
1	1670	251
1	1678	252
1	1669	253
1	1652	254
1	1632	255
1	1590	256
1	1542	257
1	1499	258
1	1454	259
1	1538	220
1	1519	221
1	1514	222
1	1521	223
1	1541	224
1	1571	225
1	1607	226
1	1647	227
1	1688	228
1	1718	229
1	1738	230
1	1739	231
1	1724	232
1	1710	233
1	1674	234
1	1633	235
1	1581	236
1	1539	237
1	1491	238
1	1450	239
1	1419	260
1	1383	261
1	1370	262
1	1379	263
1	1416	264
1	1452	265
1	1490	266
1	1529	267
1	1561	268
1	1594	269
1	1621	270
1	1634	271
1	1633	272
1	1620	273
1	1592	274
1	1557	275
1	1521	276
1	1486	277
1	1454	278
1	1428	279
1	1410	280
1	1393	281
1	1384	282
1	1395	283
1	1413	284
1	1437	285
1	1472	286
1	1507	287
1	1549	288
1	1573	289
1	1582	290
1	1571	291
1	1544	292
1	1510	293
1	1476	294
1	1437	295
1	1397	296
1	1356	297
1	1310	298
1	1282	299
1	1266	300
1	1270	301
1	1301	302
1	1355	303
1	1411	304
1	1461	305
1	1503	306
1	1548	307
1	1585	308
1	1618	309
1	1645	310
1	1660	311
1	1661	312
1	1634	313
1	1594	314
1	1545	315
1	1497	316
1	1452	317
1	1420	318
1	1384	319
1	1345	360
1	1337	361
1	1332	362
1	1352	363
1	1377	364
1	1416	365
1	1446	366
1	1481	367
1	1524	368
1	1557	369
1	1581	370
1	1591	371
1	1589	372
1	1576	373
1	1556	374
1	1539	375
1	1517	376
1	1499	377
1	1479	378
1	1463	379
1	1362	320
1	1356	321
1	1368	322
1	1393	323
1	1421	324
1	1453	325
1	1498	326
1	1546	327
1	1593	328
1	1625	329
1	1644	330
1	1647	331
1	1635	332
1	1616	333
1	1577	334
1	1530	335
1	1487	336
1	1459	337
1	1433	338
1	1422	339
1	1413	340
1	1417	341
1	1424	342
1	1435	343
1	1445	344
1	1460	345
1	1481	346
1	1507	347
1	1547	348
1	1580	349
1	1599	350
1	1606	351
1	1594	352
1	1572	353
1	1538	354
1	1499	355
1	1453	356
1	1415	357
1	1376	358
1	1359	359
1	1449	380
1	1440	381
1	1441	382
1	1450	383
1	1476	384
1	1503	385
1	1543	386
1	1582	387
1	1611	388
1	1636	389
1	1649	390
1	1652	391
1	1651	392
1	1644	393
1	1622	394
1	1596	395
1	1564	396
1	1524	397
1	1477	398
1	1441	399
1	1409	400
1	1394	401
1	1384	402
1	1395	403
1	1413	404
1	1436	405
1	1459	406
1	1494	407
1	1536	408
1	1559	409
1	1573	410
1	1580	411
1	1581	412
1	1575	413
1	1556	414
1	1531	415
1	1505	416
1	1482	417
1	1455	418
1	1435	419
1	1422	440
1	1421	441
1	1427	442
1	1448	443
1	1478	444
1	1517	445
1	1554	446
1	1584	447
1	1615	448
1	1647	449
1	1673	450
1	1685	451
1	1679	452
1	1661	453
1	1631	454
1	1592	455
1	1538	456
1	1484	457
1	1436	458
1	1395	459
1	1424	420
1	1415	421
1	1410	422
1	1424	423
1	1443	424
1	1477	425
1	1529	426
1	1593	427
1	1654	428
1	1700	429
1	1727	430
1	1741	431
1	1739	432
1	1713	433
1	1679	434
1	1625	435
1	1569	436
1	1517	437
1	1476	438
1	1442	439
1	1355	460
1	1336	461
1	1335	462
1	1350	463
1	1382	464
1	1427	465
1	1481	466
1	1541	467
1	1595	468
1	1634	469
1	1665	470
1	1685	471
1	1688	472
1	1674	473
1	1645	474
1	1607	475
1	1562	476
1	1520	477
1	1476	478
1	1433	479
1	1396	480
1	1363	481
1	1346	482
1	1357	483
1	1371	484
1	1399	485
1	1440	486
1	1489	487
1	1533	488
1	1579	489
1	1618	490
1	1647	491
1	1662	492
1	1659	493
1	1647	494
1	1629	495
1	1607	496
1	1579	497
1	1548	498
1	1513	499
1	1490	500
1	1482	501
1	1484	502
1	1494	503
1	1508	504
1	1529	505
1	1555	506
1	1586	507
1	1610	508
1	1634	509
1	1654	510
1	1660	511
1	1652	512
1	1633	513
1	1602	514
1	1572	515
1	1543	516
1	1514	517
1	1478	518
1	1445	519
1	1423	520
1	1412	521
1	1420	522
1	1434	523
1	1458	524
1	1494	525
1	1537	526
1	1579	527
1	1615	528
1	1641	529
1	1659	530
1	1670	531
1	1669	532
1	1649	533
1	1604	534
1	1548	535
1	1493	536
1	1439	537
1	1396	538
1	1355	539
1	1322	540
1	1304	541
1	1296	542
1	1319	543
1	1350	544
1	1411	545
1	1477	546
1	1554	547
1	1620	548
1	1667	549
1	1700	550
1	1717	551
1	1725	552
1	1712	553
1	1686	554
1	1647	555
1	1602	556
1	1555	557
1	1518	558
1	1495	559
1	1490	560
1	1490	561
1	1489	562
1	1487	563
1	1490	564
1	1511	565
1	1546	566
1	1592	567
1	1626	568
1	1649	569
1	1665	570
1	1670	571
1	1660	572
1	1638	573
1	1609	574
1	1581	575
1	1553	576
1	1518	577
1	1483	578
1	1448	579
1	1424	580
1	1416	581
1	1420	582
1	1431	583
1	1458	584
1	1501	585
1	1553	586
1	1607	587
1	1661	588
1	1703	589
1	1729	590
1	1742	591
1	1742	592
1	1729	593
1	1708	594
1	1674	595
1	1634	596
1	1586	597
1	1533	598
1	1489	599
1	1467	600
1	1458	601
1	1465	602
1	1491	603
1	1523	604
1	1563	605
1	1607	606
1	1644	607
1	1674	608
1	1701	609
1	1723	610
1	1733	611
1	1721	612
1	1686	613
1	1641	614
1	1602	615
1	1561	616
1	1521	617
1	1488	618
1	1461	619
1	1448	620
1	1445	621
1	1453	622
1	1476	623
1	1508	624
1	1542	625
1	1567	626
1	1594	627
1	1618	628
1	1638	629
1	1647	630
1	1642	631
1	1620	632
1	1605	633
1	1574	634
1	1539	635
1	1503	636
1	1453	637
1	1398	638
1	1348	639
1	1323	640
1	1322	641
1	1337	642
1	1372	643
1	1427	644
1	1489	645
1	1544	646
1	1590	647
1	1631	648
1	1663	649
1	1698	650
1	1721	651
1	1737	652
1	1738	653
1	1712	654
1	1670	655
1	1611	656
1	1553	657
1	1487	658
1	1450	659
1	1422	660
1	1402	661
1	1408	662
1	1437	663
1	1482	664
1	1531	665
1	1584	666
1	1630	667
1	1665	668
1	1698	669
1	1718	670
1	1724	671
1	1712	672
1	1684	673
1	1647	674
1	1595	675
1	1539	676
1	1492	677
1	1451	678
1	1415	679
1	1391	680
1	1373	681
1	1373	682
1	1394	683
1	1424	684
1	1469	685
1	1524	686
1	1581	687
1	1624	688
1	1661	689
1	1686	690
1	1692	691
1	1680	692
1	1661	693
1	1631	694
1	1599	695
1	1566	696
1	1532	697
1	1499	698
1	1469	699
1	1445	700
1	1425	701
1	1423	702
1	1427	703
1	1450	704
1	1479	705
1	1520	706
1	1559	707
1	1607	708
1	1647	709
1	1685	710
1	1708	711
1	1718	712
1	1719	713
1	1710	714
1	1688	715
1	1664	716
1	1637	717
1	1607	718
1	1581	719
1	1564	720
1	1570	721
1	1597	722
1	1661	723
1	1742	724
1	1836	725
1	1919	726
1	1997	727
1	2069	728
1	2131	729
1	2183	730
1	2214	731
1	2218	732
1	2186	733
1	2153	734
1	2105	735
1	2050	736
1	1980	737
1	1908	738
1	1834	739
1	1762	740
1	1710	741
1	1664	742
1	1625	743
1	1594	744
1	1576	745
1	1561	746
1	1554	747
1	1548	748
1	1544	749
1	1541	750
1	1531	751
1	1526	752
1	1520	753
1	1518	754
1	1521	755
1	1517	756
1	1507	757
1	1495	758
1	1479	759
1	1467	760
1	1463	761
1	1474	762
1	1489	763
1	1517	764
1	1555	765
1	1598	766
1	1643	767
1	1684	768
1	1709	769
1	1712	770
1	1697	771
1	1664	772
1	1620	773
1	1571	774
1	1524	775
1	1484	776
1	1452	777
1	1424	778
1	1402	779
1	1391	780
1	1390	781
1	1404	782
1	1448	783
1	1502	784
1	1555	785
1	1603	786
1	1649	787
1	1685	788
1	1711	789
1	1724	790
1	1721	791
1	1710	792
1	1674	793
1	1634	794
1	1581	795
1	1530	796
1	1488	797
1	1456	798
1	1437	799
1	1424	800
1	1417	801
1	1427	802
1	1450	803
1	1482	804
1	1528	805
1	1582	806
1	1647	807
1	1701	808
1	1753	809
1	1788	810
1	1802	811
1	1803	812
1	1787	813
1	1748	814
1	1697	815
1	1639	816
1	1589	817
1	1543	818
1	1503	819
1	1469	820
1	1443	821
1	1429	822
1	1427	823
1	1450	824
1	1476	825
1	1508	826
1	1543	827
1	1589	828
1	1628	829
1	1660	830
1	1683	831
1	1697	832
1	1698	833
1	1679	834
1	1654	835
1	1616	836
1	1566	837
1	1530	838
1	1507	839
1	1495	840
1	1493	841
1	1494	842
1	1508	843
1	1533	844
1	1564	845
1	1597	846
1	1638	847
1	1686	848
1	1721	849
1	1751	850
1	1765	851
1	1776	852
1	1773	853
1	1766	854
1	1749	855
1	1710	856
1	1660	857
1	1611	858
1	1560	859
1	1569	880
1	1553	881
1	1542	882
1	1544	883
1	1559	884
1	1589	885
1	1626	886
1	1678	887
1	1727	888
1	1763	889
1	1783	890
1	1787	891
1	1780	892
1	1764	893
1	1737	894
1	1701	895
1	1660	896
1	1620	897
1	1581	898
1	1553	899
1	1520	860
1	1485	861
1	1464	862
1	1466	863
1	1482	864
1	1500	865
1	1525	866
1	1566	867
1	1616	868
1	1659	869
1	1687	870
1	1704	871
1	1710	872
1	1701	873
1	1685	874
1	1664	875
1	1643	876
1	1628	877
1	1608	878
1	1590	879
1	1532	900
1	1525	901
1	1528	902
1	1547	903
1	1571	904
1	1598	905
1	1638	906
1	1687	907
1	1729	908
1	1760	909
1	1782	910
1	1796	911
1	1808	912
1	1790	913
1	1762	914
1	1723	915
1	1679	916
1	1633	917
1	1591	918
1	1551	919
1	1526	920
1	1526	921
1	1539	922
1	1561	923
1	1584	924
1	1616	925
1	1652	926
1	1691	927
1	1720	928
1	1751	929
1	1779	930
1	1800	931
1	1818	932
1	1828	933
1	1817	934
1	1786	935
1	1743	936
1	1712	937
1	1660	938
1	1620	939
1	1594	940
1	1594	941
1	1620	942
1	1660	943
1	1710	944
1	1753	945
1	1795	946
1	1836	947
1	1858	948
1	1881	949
1	1885	950
1	1877	951
1	1868	952
1	1849	953
1	1826	954
1	1801	955
1	1782	956
1	1762	957
1	1726	958
1	1700	959
1	1683	960
1	1677	961
1	1684	962
1	1700	963
1	1714	964
1	1736	965
1	1760	966
1	1787	967
1	1817	968
1	1845	969
1	1865	970
1	1870	971
1	1862	972
1	1836	973
1	1808	974
1	1764	975
1	1715	976
1	1674	977
1	1638	978
1	1602	979
1	1584	1000
1	1564	1001
1	1562	1002
1	1574	1003
1	1592	1004
1	1613	1005
1	1645	1006
1	1678	1007
1	1717	1008
1	1749	1009
1	1769	1010
1	1787	1011
1	1790	1012
1	1782	1013
1	1764	1014
1	1737	1015
1	1694	1016
1	1647	1017
1	1602	1018
1	1566	1019
1	1577	980
1	1571	981
1	1590	982
1	1633	983
1	1685	984
1	1738	985
1	1793	986
1	1843	987
1	1869	988
1	1897	989
1	1922	990
1	1939	991
1	1936	992
1	1917	993
1	1877	994
1	1836	995
1	1787	996
1	1737	997
1	1677	998
1	1625	999
1	1540	1020
1	1526	1021
1	1524	1022
1	1538	1023
1	1560	1024
1	1582	1025
1	1608	1026
1	1641	1027
1	1670	1028
1	1687	1029
1	1694	1030
1	1697	1031
1	1694	1032
1	1670	1033
1	1635	1034
1	1592	1035
1	1544	1036
1	1499	1037
1	1467	1038
1	1448	1039
1	1427	1040
1	1411	1041
1	1413	1042
1	1413	1043
1	1428	1044
1	1460	1045
1	1501	1046
1	1549	1047
1	1593	1048
1	1626	1049
1	1649	1050
1	1662	1051
1	1668	1052
1	1658	1053
1	1633	1054
1	1609	1055
1	1585	1056
1	1561	1057
1	1528	1058
1	1492	1059
1	1468	1060
1	1454	1061
1	1450	1062
1	1454	1063
1	1468	1064
1	1479	1065
1	1494	1066
1	1511	1067
1	1541	1068
1	1561	1069
1	1580	1070
1	1593	1071
1	1605	1072
1	1607	1073
1	1605	1074
1	1594	1075
1	1577	1076
1	1553	1077
1	1513	1078
1	1485	1079
1	1453	1080
1	1435	1081
1	1422	1082
1	1418	1083
1	1423	1084
1	1439	1085
1	1472	1086
1	1510	1087
1	1553	1088
1	1587	1089
1	1610	1090
1	1632	1091
1	1643	1092
1	1638	1093
1	1635	1094
1	1631	1095
1	1619	1096
1	1597	1097
1	1572	1098
1	1534	1099
1	1503	1100
1	1476	1101
1	1464	1102
1	1464	1103
1	1476	1104
1	1500	1105
1	1529	1106
1	1559	1107
1	1588	1108
1	1615	1109
1	1632	1110
1	1635	1111
1	1631	1112
1	1613	1113
1	1593	1114
1	1571	1115
1	1542	1116
1	1509	1117
1	1479	1118
1	1456	1119
1	1446	1120
1	1436	1121
1	1433	1122
1	1427	1123
1	1435	1124
1	1446	1125
1	1466	1126
1	1490	1127
1	1521	1128
1	1550	1129
1	1575	1130
1	1589	1131
1	1592	1132
1	1581	1133
1	1566	1134
1	1547	1135
1	1529	1136
1	1511	1137
1	1490	1138
1	1472	1139
1	1423	1180
1	1398	1181
1	1376	1182
1	1380	1183
1	1409	1184
1	1441	1185
1	1489	1186
1	1539	1187
1	1589	1188
1	1634	1189
1	1671	1190
1	1701	1191
1	1712	1192
1	1707	1193
1	1688	1194
1	1661	1195
1	1634	1196
1	1605	1197
1	1563	1198
1	1525	1199
1	1480	1160
1	1476	1161
1	1490	1162
1	1517	1163
1	1551	1164
1	1590	1165
1	1628	1166
1	1660	1167
1	1686	1168
1	1706	1169
1	1715	1170
1	1712	1171
1	1695	1172
1	1673	1173
1	1634	1174
1	1587	1175
1	1539	1176
1	1501	1177
1	1472	1178
1	1449	1179
1	1456	1140
1	1445	1141
1	1446	1142
1	1461	1143
1	1477	1144
1	1498	1145
1	1527	1146
1	1566	1147
1	1598	1148
1	1634	1149
1	1660	1150
1	1674	1151
1	1676	1152
1	1661	1153
1	1649	1154
1	1629	1155
1	1602	1156
1	1566	1157
1	1530	1158
1	1499	1159
1	1485	1200
1	1450	1201
1	1427	1202
1	1433	1203
1	1461	1204
1	1503	1205
1	1558	1206
1	1623	1207
1	1686	1208
1	1737	1209
1	1764	1210
1	1775	1211
1	1772	1212
1	1751	1213
1	1722	1214
1	1683	1215
1	1629	1216
1	1576	1217
1	1534	1218
1	1503	1219
1	1487	1220
1	1479	1221
1	1481	1222
1	1490	1223
1	1524	1224
1	1567	1225
1	1619	1226
1	1664	1227
1	1700	1228
1	1724	1229
1	1736	1230
1	1738	1231
1	1737	1232
1	1727	1233
1	1704	1234
1	1665	1235
1	1628	1236
1	1581	1237
1	1529	1238
1	1490	1239
1	1467	1240
1	1456	1241
1	1453	1242
1	1458	1243
1	1469	1244
1	1481	1245
1	1503	1246
1	1529	1247
1	1557	1248
1	1573	1249
1	1579	1250
1	1571	1251
1	1561	1252
1	1542	1253
1	1520	1254
1	1502	1255
1	1476	1256
1	1450	1257
1	1417	1258
1	1397	1259
1	1381	1260
1	1376	1261
1	1395	1262
1	1425	1263
1	1455	1264
1	1487	1265
1	1520	1266
1	1553	1267
1	1581	1268
1	1603	1269
1	1626	1270
1	1647	1271
1	1662	1272
1	1661	1273
1	1651	1274
1	1629	1275
1	1594	1276
1	1556	1277
1	1524	1278
1	1482	1279
1	1450	1280
1	1433	1281
1	1433	1282
1	1446	1283
1	1474	1284
1	1503	1285
1	1544	1286
1	1589	1287
1	1631	1288
1	1670	1289
1	1702	1290
1	1724	1291
1	1733	1292
1	1729	1293
1	1713	1294
1	1692	1295
1	1661	1296
1	1634	1297
1	1598	1298
1	1563	1299
1	1541	1300
1	1529	1301
1	1528	1302
1	1529	1303
1	1544	1304
1	1570	1305
1	1602	1306
1	1633	1307
1	1667	1308
1	1695	1309
1	1713	1310
1	1716	1311
1	1704	1312
1	1674	1313
1	1639	1314
1	1607	1315
1	1571	1316
1	1533	1317
1	1491	1318
1	1459	1319
1	1438	1320
1	1427	1321
1	1427	1322
1	1448	1323
1	1472	1324
1	1499	1325
1	1526	1326
1	1553	1327
1	1580	1328
1	1598	1329
1	1616	1330
1	1631	1331
1	1634	1332
1	1612	1333
1	1589	1334
1	1561	1335
1	1541	1336
1	1513	1337
1	1485	1338
1	1467	1339
1	1450	1340
1	1437	1341
1	1442	1342
1	1459	1343
1	1485	1344
1	1517	1345
1	1546	1346
1	1581	1347
1	1622	1348
1	1655	1349
1	1679	1350
1	1688	1351
1	1687	1352
1	1679	1353
1	1664	1354
1	1639	1355
1	1602	1356
1	1565	1357
1	1521	1358
1	1491	1359
1	1472	1360
1	1458	1361
1	1454	1362
1	1464	1363
1	1477	1364
1	1495	1365
1	1516	1366
1	1529	1367
1	1546	1368
1	1554	1369
1	1556	1370
1	1559	1371
1	1560	1372
1	1565	1373
1	1572	1374
1	1580	1375
1	1580	1376
1	1578	1377
1	1563	1378
1	1554	1379
1	1544	1380
1	1543	1381
1	1551	1382
1	1565	1383
1	1579	1384
1	1584	1385
1	1598	1386
1	1612	1387
1	1631	1388
1	1647	1389
1	1665	1390
1	1682	1391
1	1687	1392
1	1678	1393
1	1664	1394
1	1647	1395
1	1623	1396
1	1593	1397
1	1554	1398
1	1515	1399
1	1480	1400
1	1451	1401
1	1437	1402
1	1445	1403
1	1476	1404
1	1508	1405
1	1544	1406
1	1582	1407
1	1624	1408
1	1662	1409
1	1700	1410
1	1720	1411
1	1723	1412
1	1719	1413
1	1711	1414
1	1693	1415
1	1669	1416
1	1639	1417
1	1610	1418
1	1579	1419
1	1543	1420
1	1517	1421
1	1500	1422
1	1498	1423
1	1517	1424
1	1546	1425
1	1574	1426
1	1602	1427
1	1625	1428
1	1634	1429
1	1635	1430
1	1642	1431
1	1646	1432
1	1640	1433
1	1628	1434
1	1603	1435
1	1580	1436
1	1548	1437
1	1517	1438
1	1491	1439
1	1482	1440
1	1481	1441
1	1487	1442
1	1494	1443
1	1505	1444
1	1529	1445
1	1559	1446
1	1597	1447
1	1631	1448
1	1647	1449
1	1651	1450
1	1637	1451
1	1619	1452
1	1585	1453
1	1562	1454
1	1537	1455
1	1511	1456
1	1490	1457
1	1467	1458
1	1445	1459
1	1437	1460
1	1443	1461
1	1450	1462
1	1473	1463
1	1508	1464
1	1556	1465
1	1613	1466
1	1670	1467
1	1710	1468
1	1734	1469
1	1754	1470
1	1764	1471
1	1763	1472
1	1749	1473
1	1722	1474
1	1688	1475
1	1647	1476
1	1602	1477
1	1550	1478
1	1503	1479
1	1465	1480
1	1437	1481
1	1417	1482
1	1410	1483
1	1425	1484
1	1456	1485
1	1502	1486
1	1555	1487
1	1621	1488
1	1674	1489
1	1714	1490
1	1742	1491
1	1760	1492
1	1764	1493
1	1764	1494
1	1746	1495
1	1716	1496
1	1674	1497
1	1620	1498
1	1580	1499
1	1549	1500
1	1533	1501
1	1530	1502
1	1545	1503
1	1578	1504
1	1616	1505
1	1660	1506
1	1710	1507
1	1760	1508
1	1800	1509
1	1826	1510
1	1827	1511
1	1808	1512
1	1759	1513
1	1712	1514
1	1660	1515
1	1607	1516
1	1555	1517
1	1514	1518
1	1485	1519
1	1466	1520
1	1463	1521
1	1472	1522
1	1490	1523
1	1517	1524
1	1555	1525
1	1595	1526
1	1634	1527
1	1662	1528
1	1686	1529
1	1701	1530
1	1710	1531
1	1712	1532
1	1715	1533
1	1704	1534
1	1677	1535
1	1644	1536
1	1602	1537
1	1555	1538
1	1517	1539
1	1511	1560
1	1503	1561
1	1502	1562
1	1513	1563
1	1540	1564
1	1573	1565
1	1611	1566
1	1647	1567
1	1673	1568
1	1688	1569
1	1700	1570
1	1701	1571
1	1695	1572
1	1664	1573
1	1634	1574
1	1593	1575
1	1554	1576
1	1514	1577
1	1485	1578
1	1451	1579
1	1488	1540
1	1464	1541
1	1454	1542
1	1454	1543
1	1472	1544
1	1495	1545
1	1528	1546
1	1567	1547
1	1611	1548
1	1662	1549
1	1699	1550
1	1727	1551
1	1743	1552
1	1729	1553
1	1705	1554
1	1674	1555
1	1638	1556
1	1603	1557
1	1555	1558
1	1529	1559
1	1425	1580
1	1409	1581
1	1404	1582
1	1419	1583
1	1448	1584
1	1481	1585
1	1520	1586
1	1566	1587
1	1607	1588
1	1644	1589
1	1674	1590
1	1687	1591
1	1687	1592
1	1679	1593
1	1648	1594
1	1613	1595
1	1579	1596
1	1547	1597
1	1525	1598
1	1503	1599
1	1490	1600
1	1489	1601
1	1503	1602
1	1526	1603
1	1557	1604
1	1601	1605
1	1642	1606
1	1681	1607
1	1718	1608
1	1738	1609
1	1743	1610
1	1734	1611
1	1705	1612
1	1661	1613
1	1619	1614
1	1577	1615
1	1531	1616
1	1492	1617
1	1453	1618
1	1437	1619
1	1430	1620
1	1435	1621
1	1446	1622
1	1472	1623
1	1500	1624
1	1539	1625
1	1581	1626
1	1634	1627
1	1683	1628
1	1726	1629
1	1757	1630
1	1777	1631
1	1777	1632
1	1755	1633
1	1742	1634
1	1735	1635
1	1726	1636
1	1715	1637
1	1706	1638
1	1712	1639
1	1730	1640
1	1757	1641
1	1816	1642
1	1869	1643
1	1935	1644
1	2007	1645
1	2076	1646
1	2143	1647
1	2192	1648
1	2220	1649
1	2234	1650
1	2213	1651
1	2175	1652
1	2120	1653
1	2052	1654
1	1974	1655
1	1895	1656
1	1801	1657
1	1706	1658
1	1621	1659
1	1550	1660
1	1494	1661
1	1454	1662
1	1427	1663
1	1424	1664
1	1437	1665
1	1463	1666
1	1499	1667
1	1543	1668
1	1582	1669
1	1611	1670
1	1634	1671
1	1643	1672
1	1639	1673
1	1634	1674
1	1621	1675
1	1596	1676
1	1563	1677
1	1514	1678
1	1476	1679
1	1438	1680
1	1415	1681
1	1409	1682
1	1422	1683
1	1442	1684
1	1476	1685
1	1513	1686
1	1555	1687
1	1592	1688
1	1627	1689
1	1657	1690
1	1678	1691
1	1683	1692
1	1661	1693
1	1646	1694
1	1622	1695
1	1593	1696
1	1568	1697
1	1554	1698
1	1542	1699
1	1529	1700
1	1521	1701
1	1520	1702
1	1521	1703
1	1527	1704
1	1541	1705
1	1561	1706
1	1583	1707
1	1598	1708
1	1611	1709
1	1629	1710
1	1635	1711
1	1637	1712
1	1638	1713
1	1625	1714
1	1602	1715
1	1578	1716
1	1553	1717
1	1523	1718
1	1495	1719
1	1481	1720
1	1477	1721
1	1485	1722
1	1499	1723
1	1525	1724
1	1552	1725
1	1577	1726
1	1604	1727
1	1634	1728
1	1657	1729
1	1672	1730
1	1680	1731
1	1686	1732
1	1692	1733
1	1685	1734
1	1655	1735
1	1626	1736
1	1590	1737
1	1548	1738
1	1503	1739
1	1474	1740
1	1462	1741
1	1471	1742
1	1489	1743
1	1517	1744
1	1550	1745
1	1584	1746
1	1630	1747
1	1670	1748
1	1710	1749
1	1737	1750
1	1749	1751
1	1750	1752
1	1729	1753
1	1714	1754
1	1695	1755
1	1667	1756
1	1629	1757
1	1582	1758
1	1530	1759
1	1482	1760
1	1450	1761
1	1437	1762
1	1440	1763
1	1463	1764
1	1492	1765
1	1530	1766
1	1574	1767
1	1620	1768
1	1656	1769
1	1686	1770
1	1710	1771
1	1712	1772
1	1706	1773
1	1687	1774
1	1661	1775
1	1629	1776
1	1589	1777
1	1544	1778
1	1504	1779
1	1478	1800
1	1463	1801
1	1456	1802
1	1465	1803
1	1488	1804
1	1518	1805
1	1554	1806
1	1585	1807
1	1618	1808
1	1644	1809
1	1665	1810
1	1690	1811
1	1700	1812
1	1687	1813
1	1679	1814
1	1669	1815
1	1657	1816
1	1645	1817
1	1630	1818
1	1609	1819
1	1484	1780
1	1479	1781
1	1490	1782
1	1520	1783
1	1555	1784
1	1594	1785
1	1634	1786
1	1665	1787
1	1699	1788
1	1728	1789
1	1750	1790
1	1755	1791
1	1751	1792
1	1729	1793
1	1699	1794
1	1661	1795
1	1620	1796
1	1579	1797
1	1531	1798
1	1502	1799
1	1597	1820
1	1589	1821
1	1586	1822
1	1593	1823
1	1609	1824
1	1639	1825
1	1678	1826
1	1720	1827
1	1764	1828
1	1803	1829
1	1835	1830
1	1845	1831
1	1845	1832
1	1834	1833
1	1803	1834
1	1760	1835
1	1719	1836
1	1675	1837
1	1626	1838
1	1585	1839
1	1561	1840
1	1549	1841
1	1554	1842
1	1570	1843
1	1605	1844
1	1647	1845
1	1700	1846
1	1764	1847
1	1827	1848
1	1871	1849
1	1893	1850
1	1890	1851
1	1878	1852
1	1843	1853
1	1791	1854
1	1733	1855
1	1682	1856
1	1631	1857
1	1562	1858
1	1529	1859
1	1504	1860
1	1503	1861
1	1531	1862
1	1584	1863
1	1646	1864
1	1704	1865
1	1763	1866
1	1817	1867
1	1860	1868
1	1895	1869
1	1922	1870
1	1937	1871
1	1939	1872
1	1914	1873
1	1890	1874
1	1847	1875
1	1791	1876
1	1742	1877
1	1696	1878
1	1647	1879
1	1601	1880
1	1567	1881
1	1554	1882
1	1569	1883
1	1607	1884
1	1660	1885
1	1721	1886
1	1777	1887
1	1825	1888
1	1856	1889
1	1868	1890
1	1857	1891
1	1841	1892
1	1818	1893
1	1795	1894
1	1778	1895
1	1764	1896
1	1739	1897
1	1713	1898
1	1686	1899
1	1667	1900
1	1658	1901
1	1655	1902
1	1656	1903
1	1664	1904
1	1684	1905
1	1710	1906
1	1739	1907
1	1777	1908
1	1813	1909
1	1836	1910
1	1850	1911
1	1847	1912
1	1834	1913
1	1803	1914
1	1777	1915
1	1746	1916
1	1713	1917
1	1669	1918
1	1635	1919
1	1607	1920
1	1586	1921
1	1579	1922
1	1587	1923
1	1607	1924
1	1633	1925
1	1660	1926
1	1683	1927
1	1710	1928
1	1734	1929
1	1751	1930
1	1762	1931
1	1764	1932
1	1759	1933
1	1749	1934
1	1729	1935
1	1703	1936
1	1678	1937
1	1643	1938
1	1608	1939
1	1594	1940
1	1581	1941
1	1566	1942
1	1568	1943
1	1578	1944
1	1593	1945
1	1613	1946
1	1635	1947
1	1657	1948
1	1670	1949
1	1670	1950
1	1667	1951
1	1658	1952
1	1635	1953
1	1615	1954
1	1587	1955
1	1555	1956
1	1531	1957
1	1503	1958
1	1476	1959
1	1446	1960
1	1424	1961
1	1414	1962
1	1415	1963
1	1429	1964
1	1459	1965
1	1497	1966
1	1541	1967
1	1584	1968
1	1620	1969
1	1643	1970
1	1648	1971
1	1644	1972
1	1626	1973
1	1594	1974
1	1555	1975
1	1507	1976
1	1465	1977
1	1422	1978
1	1398	1979
1	1393	1980
1	1392	1981
1	1398	1982
1	1424	1983
1	1450	1984
1	1490	1985
1	1536	1986
1	1586	1987
1	1634	1988
1	1677	1989
1	1706	1990
1	1718	1991
1	1716	1992
1	1687	1993
1	1652	1994
1	1607	1995
1	1573	1996
1	1543	1997
1	1512	1998
1	1477	1999
1	1454	2000
1	1446	2001
1	1445	2002
1	1450	2003
1	1464	2004
1	1482	2005
1	1508	2006
1	1543	2007
1	1587	2008
1	1633	2009
1	1665	2010
1	1682	2011
1	1684	2012
1	1670	2013
1	1641	2014
1	1600	2015
1	1551	2016
1	1498	2017
1	1451	2018
1	1424	2019
1	1406	2020
1	1400	2021
1	1407	2022
1	1421	2023
1	1440	2024
1	1467	2025
1	1499	2026
1	1536	2027
1	1581	2028
1	1617	2029
1	1643	2030
1	1655	2031
1	1656	2032
1	1644	2033
1	1616	2034
1	1577	2035
1	1539	2036
1	1495	2037
1	1456	2038
1	1420	2039
1	1382	2040
1	1364	2041
1	1366	2042
1	1381	2043
1	1411	2044
1	1443	2045
1	1482	2046
1	1527	2047
1	1555	2048
1	1580	2049
1	1597	2050
1	1620	2051
1	1639	2052
1	1652	2053
1	1649	2054
1	1631	2055
1	1599	2056
1	1568	2057
1	1542	2058
1	1517	2059
1	1420	2080
1	1422	2081
1	1437	2082
1	1458	2083
1	1482	2084
1	1510	2085
1	1541	2086
1	1567	2087
1	1584	2088
1	1595	2089
1	1603	2090
1	1602	2091
1	1593	2092
1	1581	2093
1	1572	2094
1	1555	2095
1	1529	2096
1	1504	2097
1	1476	2098
1	1469	2099
1	1502	2060
1	1486	2061
1	1480	2062
1	1487	2063
1	1503	2064
1	1530	2065
1	1564	2066
1	1596	2067
1	1626	2068
1	1652	2069
1	1665	2070
1	1668	2071
1	1659	2072
1	1642	2073
1	1608	2074
1	1581	2075
1	1554	2076
1	1518	2077
1	1476	2078
1	1437	2079
1	1461	2100
1	1453	2101
1	1453	2102
1	1461	2103
1	1476	2104
1	1503	2105
1	1537	2106
1	1573	2107
1	1613	2108
1	1654	2109
1	1682	2110
1	1690	2111
1	1685	2112
1	1657	2113
1	1629	2114
1	1589	2115
1	1553	2116
1	1526	2117
1	1501	2118
1	1476	2119
1	1454	2120
1	1450	2121
1	1471	2122
1	1503	2123
1	1544	2124
1	1577	2125
1	1606	2126
1	1631	2127
1	1651	2128
1	1670	2129
1	1675	2130
1	1671	2131
1	1657	2132
1	1634	2133
1	1605	2134
1	1559	2135
1	1521	2136
1	1481	2137
1	1437	2138
1	1405	2139
1	1392	2140
1	1393	2141
1	1407	2142
1	1433	2143
1	1466	2144
1	1505	2145
1	1553	2146
1	1594	2147
1	1622	2148
1	1639	2149
1	1633	2150
1	1608	2151
1	1583	2152
1	1559	2153
1	1546	2154
1	1538	2155
1	1530	2156
1	1523	2157
1	1503	2158
1	1494	2159
1	1486	2160
1	1485	2161
1	1495	2162
1	1513	2163
1	1528	2164
1	1552	2165
1	1584	2166
1	1624	2167
1	1670	2168
1	1710	2169
1	1737	2170
1	1747	2171
1	1739	2172
1	1719	2173
1	1697	2174
1	1665	2175
1	1629	2176
1	1589	2177
1	1539	2178
1	1482	2179
1	1435	2180
1	1398	2181
1	1380	2182
1	1392	2183
1	1415	2184
1	1450	2185
1	1505	2186
1	1562	2187
1	1612	2188
1	1650	2189
1	1679	2190
1	1695	2191
1	1706	2192
1	1710	2193
1	1690	2194
1	1661	2195
1	1625	2196
1	1581	2197
1	1528	2198
1	1476	2199
1	1435	2200
1	1409	2201
1	1398	2202
1	1407	2203
1	1425	2204
1	1454	2205
1	1499	2206
1	1554	2207
1	1611	2208
1	1659	2209
1	1699	2210
1	1724	2211
1	1737	2212
1	1734	2213
1	1721	2214
1	1705	2215
1	1678	2216
1	1644	2217
1	1590	2218
1	1554	2219
1	1411	2240
1	1372	2241
1	1364	2242
1	1373	2243
1	1398	2244
1	1439	2245
1	1489	2246
1	1542	2247
1	1593	2248
1	1634	2249
1	1668	2250
1	1686	2251
1	1690	2252
1	1684	2253
1	1659	2254
1	1624	2255
1	1581	2256
1	1543	2257
1	1502	2258
1	1467	2259
1	1529	2220
1	1528	2221
1	1538	2222
1	1560	2223
1	1594	2224
1	1633	2225
1	1668	2226
1	1712	2227
1	1753	2228
1	1772	2229
1	1773	2230
1	1763	2231
1	1746	2232
1	1710	2233
1	1675	2234
1	1634	2235
1	1590	2236
1	1544	2237
1	1491	2238
1	1451	2239
1	1435	2260
1	1410	2261
1	1399	2262
1	1402	2263
1	1420	2264
1	1449	2265
1	1491	2266
1	1538	2267
1	1581	2268
1	1615	2269
1	1639	2270
1	1657	2271
1	1664	2272
1	1658	2273
1	1631	2274
1	1598	2275
1	1566	2276
1	1529	2277
1	1476	2278
1	1448	2279
1	1428	2280
1	1424	2281
1	1438	2282
1	1472	2283
1	1501	2284
1	1532	2285
1	1570	2286
1	1606	2287
1	1641	2288
1	1672	2289
1	1689	2290
1	1689	2291
1	1683	2292
1	1657	2293
1	1628	2294
1	1593	2295
1	1554	2296
1	1517	2297
1	1485	2298
1	1458	2299
1	1446	2300
1	1442	2301
1	1450	2302
1	1467	2303
1	1492	2304
1	1524	2305
1	1555	2306
1	1593	2307
1	1624	2308
1	1649	2309
1	1672	2310
1	1685	2311
1	1687	2312
1	1687	2313
1	1670	2314
1	1649	2315
1	1616	2316
1	1581	2317
1	1544	2318
1	1512	2319
1	1487	2320
1	1471	2321
1	1469	2322
1	1476	2323
1	1497	2324
1	1529	2325
1	1571	2326
1	1620	2327
1	1664	2328
1	1689	2329
1	1703	2330
1	1701	2331
1	1693	2332
1	1674	2333
1	1644	2334
1	1594	2335
1	1554	2336
1	1503	2337
1	1453	2338
1	1412	2339
1	1381	2340
1	1358	2341
1	1350	2342
1	1360	2343
1	1392	2344
1	1432	2345
1	1482	2346
1	1545	2347
1	1599	2348
1	1646	2349
1	1686	2350
1	1717	2351
1	1730	2352
1	1705	2353
1	1683	2354
1	1641	2355
1	1591	2356
1	1536	2357
1	1479	2358
1	1431	2359
1	1489	2380
1	1474	2381
1	1472	2382
1	1476	2383
1	1500	2384
1	1533	2385
1	1580	2386
1	1624	2387
1	1665	2388
1	1691	2389
1	1704	2390
1	1701	2391
1	1689	2392
1	1669	2393
1	1643	2394
1	1611	2395
1	1575	2396
1	1535	2397
1	1484	2398
1	1449	2399
1	1418	2400
1	1403	2401
1	1400	2402
1	1413	2403
1	1437	2404
1	1476	2405
1	1525	2406
1	1581	2407
1	1645	2408
1	1696	2409
1	1726	2410
1	1742	2411
1	1747	2412
1	1728	2413
1	1701	2414
1	1663	2415
1	1625	2416
1	1584	2417
1	1552	2418
1	1516	2419
1	1398	2360
1	1377	2361
1	1381	2362
1	1400	2363
1	1428	2364
1	1465	2365
1	1505	2366
1	1553	2367
1	1594	2368
1	1626	2369
1	1657	2370
1	1675	2371
1	1679	2372
1	1674	2373
1	1660	2374
1	1642	2375
1	1613	2376
1	1579	2377
1	1540	2378
1	1511	2379
1	1491	2420
1	1481	2421
1	1487	2422
1	1511	2423
1	1542	2424
1	1580	2425
1	1616	2426
1	1648	2427
1	1687	2428
1	1716	2429
1	1738	2430
1	1740	2431
1	1732	2432
1	1710	2433
1	1685	2434
1	1655	2435
1	1635	2436
1	1621	2437
1	1593	2438
1	1568	2439
1	1553	2440
1	1535	2441
1	1531	2442
1	1538	2443
1	1548	2444
1	1568	2445
1	1596	2446
1	1634	2447
1	1659	2448
1	1674	2449
1	1681	2450
1	1682	2451
1	1680	2452
1	1660	2453
1	1634	2454
1	1595	2455
1	1557	2456
1	1526	2457
1	1481	2458
1	1462	2459
1	1446	2460
1	1447	2461
1	1455	2462
1	1474	2463
1	1494	2464
1	1522	2465
1	1556	2466
1	1593	2467
1	1621	2468
1	1642	2469
1	1657	2470
1	1671	2471
1	1683	2472
1	1668	2473
1	1657	2474
1	1629	2475
1	1590	2476
1	1548	2477
1	1503	2478
1	1465	2479
1	1443	2480
1	1437	2481
1	1429	2482
1	1427	2483
1	1441	2484
1	1458	2485
1	1489	2486
1	1535	2487
1	1584	2488
1	1630	2489
1	1669	2490
1	1694	2491
1	1701	2492
1	1683	2493
1	1643	2494
1	1604	2495
1	1568	2496
1	1539	2497
1	1515	2498
1	1505	2499
1	1505	2500
1	1521	2501
1	1544	2502
1	1572	2503
1	1602	2504
1	1634	2505
1	1657	2506
1	1682	2507
1	1704	2508
1	1723	2509
1	1737	2510
1	1742	2511
1	1739	2512
1	1723	2513
1	1693	2514
1	1649	2515
1	1598	2516
1	1541	2517
1	1474	2518
1	1431	2519
1	1399	2520
1	1384	2521
1	1395	2522
1	1415	2523
1	1450	2524
1	1494	2525
1	1543	2526
1	1593	2527
1	1640	2528
1	1683	2529
1	1712	2530
1	1728	2531
1	1723	2532
1	1690	2533
1	1661	2534
1	1631	2535
1	1593	2536
1	1553	2537
1	1516	2538
1	1490	2539
1	1463	2540
1	1453	2541
1	1467	2542
1	1485	2543
1	1504	2544
1	1527	2545
1	1554	2546
1	1586	2547
1	1620	2548
1	1649	2549
1	1670	2550
1	1684	2551
1	1691	2552
1	1685	2553
1	1665	2554
1	1638	2555
1	1610	2556
1	1574	2557
1	1539	2558
1	1504	2559
1	1476	2560
1	1463	2561
1	1461	2562
1	1466	2563
1	1479	2564
1	1503	2565
1	1536	2566
1	1574	2567
1	1618	2568
1	1655	2569
1	1679	2570
1	1688	2571
1	1691	2572
1	1693	2573
1	1695	2574
1	1695	2575
1	1690	2576
1	1683	2577
1	1667	2578
1	1656	2579
1	1643	2580
1	1638	2581
1	1655	2582
1	1695	2583
1	1750	2584
1	1831	2585
1	1914	2586
1	2000	2587
1	2079	2588
1	2150	2589
1	2196	2590
1	2219	2591
1	2221	2592
1	2183	2593
1	2145	2594
1	2086	2595
1	2015	2596
1	1944	2597
1	1863	2598
1	1789	2599
1	1721	2600
1	1669	2601
1	1634	2602
1	1621	2603
1	1622	2604
1	1633	2605
1	1647	2606
1	1661	2607
1	1670	2608
1	1670	2609
1	1664	2610
1	1656	2611
1	1649	2612
1	1634	2613
1	1613	2614
1	1592	2615
1	1566	2616
1	1530	2617
1	1494	2618
1	1456	2619
1	1436	2620
1	1428	2621
1	1441	2622
1	1471	2623
1	1500	2624
1	1543	2625
1	1592	2626
1	1649	2627
1	1701	2628
1	1737	2629
1	1763	2630
1	1780	2631
1	1783	2632
1	1769	2633
1	1738	2634
1	1686	2635
1	1647	2636
1	1607	2637
1	1566	2638
1	1529	2639
1	1505	2640
1	1499	2641
1	1503	2642
1	1518	2643
1	1555	2644
1	1607	2645
1	1662	2646
1	1721	2647
1	1777	2648
1	1835	2649
1	1872	2650
1	1890	2651
1	1886	2652
1	1865	2653
1	1848	2654
1	1823	2655
1	1791	2656
1	1765	2657
1	1730	2658
1	1688	2659
1	1660	2660
1	1634	2661
1	1616	2662
1	1616	2663
1	1622	2664
1	1636	2665
1	1656	2666
1	1679	2667
1	1696	2668
1	1705	2669
1	1712	2670
1	1721	2671
1	1737	2672
1	1746	2673
1	1738	2674
1	1726	2675
1	1711	2676
1	1688	2677
1	1664	2678
1	1641	2679
1	1622	2680
1	1631	2681
1	1657	2682
1	1697	2683
1	1726	2684
1	1764	2685
1	1798	2686
1	1838	2687
1	1869	2688
1	1883	2689
1	1892	2690
1	1886	2691
1	1870	2692
1	1850	2693
1	1814	2694
1	1764	2695
1	1712	2696
1	1659	2697
1	1607	2698
1	1557	2699
1	1520	2700
1	1486	2701
1	1472	2702
1	1467	2703
1	1478	2704
1	1508	2705
1	1557	2706
1	1612	2707
1	1661	2708
1	1701	2709
1	1726	2710
1	1737	2711
1	1729	2712
1	1697	2713
1	1671	2714
1	1644	2715
1	1616	2716
1	1593	2717
1	1566	2718
1	1533	2719
1	1503	2720
1	1491	2721
1	1488	2722
1	1501	2723
1	1525	2724
1	1555	2725
1	1589	2726
1	1611	2727
1	1631	2728
1	1647	2729
1	1665	2730
1	1672	2731
1	1675	2732
1	1661	2733
1	1651	2734
1	1623	2735
1	1605	2736
1	1585	2737
1	1555	2738
1	1528	2739
1	1508	2740
1	1503	2741
1	1507	2742
1	1528	2743
1	1553	2744
1	1585	2745
1	1625	2746
1	1665	2747
1	1698	2748
1	1725	2749
1	1751	2750
1	1765	2751
1	1770	2752
1	1763	2753
1	1742	2754
1	1721	2755
1	1690	2756
1	1651	2757
1	1584	2758
1	1551	2759
1	1516	2760
1	1495	2761
1	1500	2762
1	1503	2763
1	1521	2764
1	1538	2765
1	1569	2766
1	1613	2767
1	1657	2768
1	1688	2769
1	1712	2770
1	1733	2771
1	1736	2772
1	1715	2773
1	1704	2774
1	1691	2775
1	1667	2776
1	1643	2777
1	1605	2778
1	1580	2779
1	1559	2780
1	1554	2781
1	1557	2782
1	1581	2783
1	1616	2784
1	1662	2785
1	1723	2786
1	1779	2787
1	1832	2788
1	1860	2789
1	1874	2790
1	1873	2791
1	1866	2792
1	1845	2793
1	1827	2794
1	1790	2795
1	1754	2796
1	1711	2797
1	1663	2798
1	1617	2799
1	1580	2800
1	1553	2801
1	1543	2802
1	1552	2803
1	1575	2804
1	1618	2805
1	1665	2806
1	1718	2807
1	1764	2808
1	1825	2809
1	1863	2810
1	1886	2811
1	1890	2812
1	1881	2813
1	1869	2814
1	1856	2815
1	1834	2816
1	1795	2817
1	1744	2818
1	1703	2819
1	1664	2820
1	1642	2821
1	1634	2822
1	1639	2823
1	1660	2824
1	1688	2825
1	1717	2826
1	1749	2827
1	1780	2828
1	1815	2829
1	1839	2830
1	1853	2831
1	1852	2832
1	1818	2833
1	1788	2834
1	1749	2835
1	1714	2836
1	1687	2837
1	1659	2838
1	1647	2839
1	1643	2840
1	1638	2841
1	1655	2842
1	1670	2843
1	1686	2844
1	1706	2845
1	1738	2846
1	1782	2847
1	1824	2848
1	1847	2849
1	1862	2850
1	1868	2851
1	1861	2852
1	1841	2853
1	1801	2854
1	1766	2855
1	1734	2856
1	1688	2857
1	1643	2858
1	1602	2859
1	1568	2860
1	1554	2861
1	1554	2862
1	1567	2863
1	1589	2864
1	1623	2865
1	1661	2866
1	1701	2867
1	1738	2868
1	1760	2869
1	1769	2870
1	1775	2871
1	1773	2872
1	1760	2873
1	1736	2874
1	1695	2875
1	1647	2876
1	1594	2877
1	1542	2878
1	1495	2879
1	1472	2880
1	1461	2881
1	1463	2882
1	1481	2883
1	1515	2884
1	1546	2885
1	1579	2886
1	1607	2887
1	1639	2888
1	1663	2889
1	1674	2890
1	1682	2891
1	1686	2892
1	1683	2893
1	1661	2894
1	1647	2895
1	1619	2896
1	1580	2897
1	1543	2898
1	1514	2899
1	1490	2900
1	1476	2901
1	1472	2902
1	1472	2903
1	1482	2904
1	1503	2905
1	1534	2906
1	1566	2907
1	1596	2908
1	1613	2909
1	1634	2910
1	1646	2911
1	1652	2912
1	1647	2913
1	1635	2914
1	1607	2915
1	1573	2916
1	1529	2917
1	1481	2918
1	1438	2919
1	1377	2940
1	1364	2941
1	1360	2942
1	1372	2943
1	1397	2944
1	1423	2945
1	1461	2946
1	1515	2947
1	1557	2948
1	1597	2949
1	1626	2950
1	1642	2951
1	1647	2952
1	1642	2953
1	1613	2954
1	1581	2955
1	1547	2956
1	1521	2957
1	1490	2958
1	1466	2959
1	1404	2920
1	1384	2921
1	1395	2922
1	1417	2923
1	1443	2924
1	1476	2925
1	1514	2926
1	1553	2927
1	1592	2928
1	1629	2929
1	1647	2930
1	1655	2931
1	1647	2932
1	1630	2933
1	1605	2934
1	1557	2935
1	1526	2936
1	1481	2937
1	1445	2938
1	1409	2939
1	1439	2960
1	1425	2961
1	1417	2962
1	1423	2963
1	1440	2964
1	1474	2965
1	1513	2966
1	1556	2967
1	1598	2968
1	1619	2969
1	1631	2970
1	1629	2971
1	1626	2972
1	1616	2973
1	1607	2974
1	1584	2975
1	1557	2976
1	1530	2977
1	1503	2978
1	1471	2979
1	1448	2980
1	1438	2981
1	1450	2982
1	1476	2983
1	1503	2984
1	1542	2985
1	1579	2986
1	1607	2987
1	1638	2988
1	1664	2989
1	1680	2990
1	1686	2991
1	1687	2992
1	1683	2993
1	1670	2994
1	1644	2995
1	1602	2996
1	1548	2997
1	1494	2998
1	1448	2999
1	1424	3000
1	1419	3001
1	1424	3002
1	1436	3003
1	1462	3004
1	1500	3005
1	1542	3006
1	1589	3007
1	1629	3008
1	1658	3009
1	1674	3010
1	1686	3011
1	1686	3012
1	1678	3013
1	1652	3014
1	1619	3015
1	1582	3016
1	1548	3017
1	1513	3018
1	1490	3019
1	1476	3020
1	1477	3021
1	1490	3022
1	1503	3023
1	1516	3024
1	1526	3025
1	1535	3026
1	1551	3027
1	1569	3028
1	1574	3029
1	1582	3030
1	1586	3031
1	1586	3032
1	1580	3033
1	1577	3034
1	1555	3035
1	1539	3036
1	1517	3037
1	1486	3038
1	1458	3039
1	1441	3040
1	1440	3041
1	1454	3042
1	1487	3043
1	1532	3044
1	1582	3045
1	1630	3046
1	1667	3047
1	1698	3048
1	1710	3049
1	1718	3050
1	1714	3051
1	1703	3052
1	1677	3053
1	1645	3054
1	1616	3055
1	1590	3056
1	1561	3057
1	1530	3058
1	1490	3059
1	1464	3060
1	1449	3061
1	1445	3062
1	1447	3063
1	1469	3064
1	1492	3065
1	1529	3066
1	1571	3067
1	1607	3068
1	1638	3069
1	1660	3070
1	1677	3071
1	1686	3072
1	1685	3073
1	1660	3074
1	1635	3075
1	1607	3076
1	1571	3077
1	1529	3078
1	1495	3079
1	1477	3080
1	1478	3081
1	1491	3082
1	1518	3083
1	1548	3084
1	1582	3085
1	1628	3086
1	1674	3087
1	1717	3088
1	1751	3089
1	1778	3090
1	1786	3091
1	1770	3092
1	1742	3093
1	1709	3094
1	1660	3095
1	1626	3096
1	1576	3097
1	1529	3098
1	1480	3099
1	1450	3100
1	1436	3101
1	1437	3102
1	1456	3103
1	1476	3104
1	1511	3105
1	1553	3106
1	1602	3107
1	1657	3108
1	1714	3109
1	1760	3110
1	1792	3111
1	1811	3112
1	1809	3113
1	1791	3114
1	1769	3115
1	1738	3116
1	1708	3117
1	1668	3118
1	1621	3119
1	1590	3120
1	1567	3121
1	1557	3122
1	1564	3123
1	1587	3124
1	1611	3125
1	1639	3126
1	1665	3127
1	1694	3128
1	1723	3129
1	1746	3130
1	1755	3131
1	1749	3132
1	1726	3133
1	1681	3134
1	1634	3135
1	1587	3136
1	1550	3137
1	1512	3138
1	1481	3139
1	1463	3140
1	1458	3141
1	1477	3142
1	1500	3143
1	1526	3144
1	1556	3145
1	1596	3146
1	1641	3147
1	1690	3148
1	1723	3149
1	1757	3150
1	1778	3151
1	1783	3152
1	1772	3153
1	1746	3154
1	1714	3155
1	1674	3156
1	1620	3157
1	1557	3158
1	1499	3159
1	1449	3160
1	1411	3161
1	1395	3162
1	1398	3163
1	1420	3164
1	1453	3165
1	1494	3166
1	1539	3167
1	1581	3168
1	1620	3169
1	1646	3170
1	1660	3171
1	1662	3172
1	1660	3173
1	1649	3174
1	1634	3175
1	1613	3176
1	1586	3177
1	1562	3178
1	1540	3179
1	1521	3180
1	1500	3181
1	1493	3182
1	1503	3183
1	1530	3184
1	1556	3185
1	1589	3186
1	1621	3187
1	1654	3188
1	1675	3189
1	1694	3190
1	1705	3191
1	1709	3192
1	1701	3193
1	1686	3194
1	1664	3195
1	1632	3196
1	1585	3197
1	1535	3198
1	1497	3199
1	1464	3200
1	1448	3201
1	1442	3202
1	1451	3203
1	1475	3204
1	1508	3205
1	1551	3206
1	1592	3207
1	1626	3208
1	1648	3209
1	1672	3210
1	1682	3211
1	1670	3212
1	1641	3213
1	1611	3214
1	1575	3215
1	1529	3216
1	1492	3217
1	1465	3218
1	1445	3219
1	1434	3220
1	1424	3221
1	1427	3222
1	1446	3223
1	1463	3224
1	1492	3225
1	1533	3226
1	1590	3227
1	1643	3228
1	1685	3229
1	1701	3230
1	1700	3231
1	1683	3232
1	1651	3233
1	1607	3234
1	1553	3235
1	1516	3236
1	1476	3237
1	1437	3238
1	1412	3239
1	1401	3240
1	1417	3241
1	1450	3242
1	1499	3243
1	1545	3244
1	1602	3245
1	1647	3246
1	1704	3247
1	1746	3248
1	1779	3249
1	1798	3250
1	1811	3251
1	1795	3252
1	1764	3253
1	1712	3254
1	1667	3255
1	1616	3256
1	1566	3257
1	1515	3258
1	1473	3259
1	1435	3260
1	1417	3261
1	1422	3262
1	1446	3263
1	1482	3264
1	1530	3265
1	1581	3266
1	1633	3267
1	1682	3268
1	1712	3269
1	1738	3270
1	1756	3271
1	1758	3272
1	1746	3273
1	1728	3274
1	1697	3275
1	1652	3276
1	1605	3277
1	1554	3278
1	1510	3279
1	1428	3300
1	1426	3301
1	1440	3302
1	1459	3303
1	1485	3304
1	1507	3305
1	1530	3306
1	1551	3307
1	1571	3308
1	1590	3309
1	1610	3310
1	1633	3311
1	1644	3312
1	1647	3313
1	1632	3314
1	1607	3315
1	1574	3316
1	1544	3317
1	1517	3318
1	1492	3319
1	1475	3280
1	1451	3281
1	1448	3282
1	1459	3283
1	1479	3284
1	1510	3285
1	1544	3286
1	1580	3287
1	1608	3288
1	1638	3289
1	1647	3290
1	1646	3291
1	1634	3292
1	1611	3293
1	1590	3294
1	1572	3295
1	1540	3296
1	1515	3297
1	1484	3298
1	1446	3299
1	1456	3320
1	1424	3321
1	1406	3322
1	1410	3323
1	1435	3324
1	1476	3325
1	1518	3326
1	1562	3327
1	1608	3328
1	1647	3329
1	1677	3330
1	1687	3331
1	1683	3332
1	1670	3333
1	1652	3334
1	1620	3335
1	1568	3336
1	1517	3337
1	1454	3338
1	1406	3339
1	1377	3340
1	1376	3341
1	1401	3342
1	1441	3343
1	1497	3344
1	1554	3345
1	1613	3346
1	1674	3347
1	1724	3348
1	1751	3349
1	1755	3350
1	1751	3351
1	1746	3352
1	1728	3353
1	1701	3354
1	1668	3355
1	1631	3356
1	1583	3357
1	1544	3358
1	1512	3359
1	1521	3380
1	1511	3381
1	1514	3382
1	1530	3383
1	1556	3384
1	1589	3385
1	1625	3386
1	1652	3387
1	1672	3388
1	1684	3389
1	1694	3390
1	1701	3391
1	1700	3392
1	1685	3393
1	1669	3394
1	1646	3395
1	1621	3396
1	1596	3397
1	1566	3398
1	1536	3399
1	1502	3360
1	1499	3361
1	1501	3362
1	1514	3363
1	1541	3364
1	1575	3365
1	1612	3366
1	1660	3367
1	1707	3368
1	1746	3369
1	1776	3370
1	1791	3371
1	1790	3372
1	1773	3373
1	1738	3374
1	1700	3375
1	1661	3376
1	1620	3377
1	1575	3378
1	1543	3379
1	1512	3400
1	1502	3401
1	1511	3402
1	1530	3403
1	1546	3404
1	1576	3405
1	1609	3406
1	1651	3407
1	1694	3408
1	1733	3409
1	1752	3410
1	1757	3411
1	1751	3412
1	1727	3413
1	1700	3414
1	1667	3415
1	1628	3416
1	1584	3417
1	1554	3418
1	1531	3419
1	1530	3420
1	1549	3421
1	1580	3422
1	1618	3423
1	1660	3424
1	1699	3425
1	1737	3426
1	1768	3427
1	1791	3428
1	1809	3429
1	1815	3430
1	1813	3431
1	1795	3432
1	1772	3433
1	1734	3434
1	1688	3435
1	1648	3436
1	1621	3437
1	1594	3438
1	1584	3439
1	1577	3440
1	1566	3441
1	1568	3442
1	1576	3443
1	1592	3444
1	1622	3445
1	1669	3446
1	1724	3447
1	1780	3448
1	1821	3449
1	1851	3450
1	1860	3451
1	1859	3452
1	1848	3453
1	1817	3454
1	1791	3455
1	1762	3456
1	1726	3457
1	1691	3458
1	1660	3459
1	1636	3460
1	1621	3461
1	1617	3462
1	1620	3463
1	1629	3464
1	1647	3465
1	1670	3466
1	1698	3467
1	1728	3468
1	1756	3469
1	1765	3470
1	1767	3471
1	1765	3472
1	1756	3473
1	1733	3474
1	1705	3475
1	1684	3476
1	1662	3477
1	1647	3478
1	1623	3479
1	1581	3500
1	1581	3501
1	1589	3502
1	1607	3503
1	1634	3504
1	1661	3505
1	1695	3506
1	1731	3507
1	1770	3508
1	1795	3509
1	1823	3510
1	1837	3511
1	1838	3512
1	1817	3513
1	1782	3514
1	1736	3515
1	1687	3516
1	1652	3517
1	1628	3518
1	1611	3519
1	1615	3480
1	1620	3481
1	1634	3482
1	1648	3483
1	1665	3484
1	1683	3485
1	1708	3486
1	1734	3487
1	1753	3488
1	1769	3489
1	1782	3490
1	1790	3491
1	1790	3492
1	1769	3493
1	1746	3494
1	1713	3495
1	1677	3496
1	1639	3497
1	1607	3498
1	1593	3499
1	1516	3540
1	1502	3541
1	1495	3542
1	1507	3543
1	1540	3544
1	1580	3545
1	1628	3546
1	1679	3547
1	1728	3548
1	1762	3549
1	1778	3550
1	1785	3551
1	1790	3552
1	1786	3553
1	1767	3554
1	1751	3555
1	1727	3556
1	1699	3557
1	1670	3558
1	1652	3559
1	1605	3520
1	1610	3521
1	1634	3522
1	1662	3523
1	1683	3524
1	1712	3525
1	1754	3526
1	1811	3527
1	1857	3528
1	1895	3529
1	1908	3530
1	1904	3531
1	1885	3532
1	1854	3533
1	1808	3534
1	1738	3535
1	1698	3536
1	1643	3537
1	1587	3538
1	1543	3539
1	1635	3560
1	1628	3561
1	1628	3562
1	1643	3563
1	1674	3564
1	1710	3565
1	1747	3566
1	1780	3567
1	1809	3568
1	1818	3569
1	1825	3570
1	1821	3571
1	1811	3572
1	1783	3573
1	1754	3574
1	1710	3575
1	1660	3576
1	1606	3577
1	1538	3578
1	1480	3579
1	1431	3580
1	1398	3581
1	1377	3582
1	1384	3583
1	1403	3584
1	1435	3585
1	1469	3586
1	1508	3587
1	1555	3588
1	1608	3589
1	1656	3590
1	1688	3591
1	1712	3592
1	1715	3593
1	1711	3594
1	1696	3595
1	1669	3596
1	1635	3597
1	1599	3598
1	1564	3599
1	1539	3600
1	1516	3601
1	1502	3602
1	1495	3603
1	1508	3604
1	1530	3605
1	1561	3606
1	1593	3607
1	1621	3608
1	1641	3609
1	1654	3610
1	1669	3611
1	1688	3612
1	1703	3613
1	1691	3614
1	1665	3615
1	1630	3616
1	1594	3617
1	1561	3618
1	1537	3619
1	1508	3620
1	1495	3621
1	1495	3622
1	1508	3623
1	1528	3624
1	1553	3625
1	1580	3626
1	1610	3627
1	1646	3628
1	1663	3629
1	1670	3630
1	1661	3631
1	1646	3632
1	1625	3633
1	1602	3634
1	1554	3635
1	1520	3636
1	1481	3637
1	1440	3638
1	1418	3639
1	1416	3640
1	1430	3641
1	1465	3642
1	1513	3643
1	1563	3644
1	1608	3645
1	1647	3646
1	1685	3647
1	1715	3648
1	1734	3649
1	1737	3650
1	1713	3651
1	1682	3652
1	1638	3653
1	1594	3654
1	1550	3655
1	1503	3656
1	1464	3657
1	1435	3658
1	1406	3659
1	1400	3660
1	1417	3661
1	1439	3662
1	1468	3663
1	1507	3664
1	1542	3665
1	1582	3666
1	1629	3667
1	1672	3668
1	1711	3669
1	1741	3670
1	1757	3671
1	1757	3672
1	1737	3673
1	1702	3674
1	1670	3675
1	1638	3676
1	1618	3677
1	1605	3678
1	1607	3679
1	1615	3680
1	1634	3681
1	1661	3682
1	1706	3683
1	1764	3684
1	1832	3685
1	1895	3686
1	1960	3687
1	2014	3688
1	2048	3689
1	2062	3690
1	2057	3691
1	2037	3692
1	1995	3693
1	1940	3694
1	1863	3695
1	1779	3696
1	1705	3697
1	1631	3698
1	1555	3699
1	1485	3700
1	1441	3701
1	1424	3702
1	1426	3703
1	1437	3704
1	1458	3705
1	1485	3706
1	1515	3707
1	1542	3708
1	1574	3709
1	1594	3710
1	1607	3711
1	1607	3712
1	1589	3713
1	1562	3714
1	1529	3715
1	1491	3716
1	1454	3717
1	1424	3718
1	1392	3719
1	1366	3720
1	1355	3721
1	1359	3722
1	1373	3723
1	1408	3724
1	1438	3725
1	1469	3726
1	1503	3727
1	1540	3728
1	1581	3729
1	1617	3730
1	1639	3731
1	1651	3732
1	1645	3733
1	1629	3734
1	1611	3735
1	1593	3736
1	1576	3737
1	1555	3738
1	1544	3739
1	1526	3740
1	1503	3741
1	1499	3742
1	1501	3743
1	1518	3744
1	1543	3745
1	1577	3746
1	1608	3747
1	1647	3748
1	1670	3749
1	1686	3750
1	1685	3751
1	1669	3752
1	1636	3753
1	1593	3754
1	1543	3755
1	1502	3756
1	1450	3757
1	1409	3758
1	1370	3759
1	1344	3760
1	1337	3761
1	1356	3762
1	1398	3763
1	1432	3764
1	1468	3765
1	1502	3766
1	1529	3767
1	1544	3768
1	1570	3769
1	1592	3770
1	1607	3771
1	1606	3772
1	1592	3773
1	1567	3774
1	1543	3775
1	1523	3776
1	1502	3777
1	1479	3778
1	1454	3779
1	1392	3800
1	1379	3801
1	1400	3802
1	1430	3803
1	1476	3804
1	1526	3805
1	1580	3806
1	1629	3807
1	1662	3808
1	1682	3809
1	1687	3810
1	1686	3811
1	1673	3812
1	1656	3813
1	1634	3814
1	1607	3815
1	1581	3816
1	1559	3817
1	1539	3818
1	1525	3819
1	1440	3780
1	1425	3781
1	1422	3782
1	1435	3783
1	1462	3784
1	1489	3785
1	1524	3786
1	1562	3787
1	1607	3788
1	1649	3789
1	1675	3790
1	1683	3791
1	1667	3792
1	1638	3793
1	1609	3794
1	1579	3795
1	1541	3796
1	1502	3797
1	1456	3798
1	1422	3799
1	1517	3820
1	1518	3821
1	1528	3822
1	1542	3823
1	1555	3824
1	1581	3825
1	1615	3826
1	1646	3827
1	1677	3828
1	1705	3829
1	1710	3830
1	1698	3831
1	1680	3832
1	1654	3833
1	1625	3834
1	1581	3835
1	1555	3836
1	1521	3837
1	1488	3838
1	1452	3839
1	1427	3840
1	1412	3841
1	1417	3842
1	1442	3843
1	1482	3844
1	1528	3845
1	1580	3846
1	1634	3847
1	1675	3848
1	1709	3849
1	1738	3850
1	1755	3851
1	1760	3852
1	1746	3853
1	1714	3854
1	1685	3855
1	1643	3856
1	1590	3857
1	1539	3858
1	1503	3859
1	1474	3860
1	1456	3861
1	1462	3862
1	1476	3863
1	1503	3864
1	1544	3865
1	1598	3866
1	1658	3867
1	1706	3868
1	1744	3869
1	1767	3870
1	1773	3871
1	1756	3872
1	1729	3873
1	1702	3874
1	1669	3875
1	1634	3876
1	1593	3877
1	1547	3878
1	1505	3879
1	1479	3880
1	1474	3881
1	1484	3882
1	1508	3883
1	1542	3884
1	1580	3885
1	1625	3886
1	1662	3887
1	1700	3888
1	1738	3889
1	1764	3890
1	1773	3891
1	1769	3892
1	1769	3893
1	1756	3894
1	1739	3895
1	1716	3896
1	1690	3897
1	1661	3898
1	1636	3899
1	1620	3900
1	1607	3901
1	1607	3902
1	1616	3903
1	1651	3904
1	1690	3905
1	1738	3906
1	1791	3907
1	1843	3908
1	1870	3909
1	1884	3910
1	1875	3911
1	1846	3912
1	1803	3913
1	1746	3914
1	1697	3915
1	1645	3916
1	1600	3917
1	1567	3918
1	1559	3919
1	1560	3920
1	1580	3921
1	1607	3922
1	1647	3923
1	1686	3924
1	1728	3925
1	1775	3926
1	1831	3927
1	1873	3928
1	1904	3929
1	1922	3930
1	1924	3931
1	1913	3932
1	1883	3933
1	1849	3934
1	1791	3935
1	1756	3936
1	1715	3937
1	1664	3938
1	1625	3939
1	1608	3940
1	1607	3941
1	1613	3942
1	1643	3943
1	1690	3944
1	1738	3945
1	1783	3946
1	1826	3947
1	1859	3948
1	1885	3949
1	1893	3950
1	1891	3951
1	1887	3952
1	1869	3953
1	1843	3954
1	1817	3955
1	1786	3956
1	1754	3957
1	1712	3958
1	1661	3959
1	1634	3960
1	1620	3961
1	1621	3962
1	1634	3963
1	1658	3964
1	1675	3965
1	1701	3966
1	1736	3967
1	1765	3968
1	1799	3969
1	1828	3970
1	1838	3971
1	1832	3972
1	1817	3973
1	1779	3974
1	1737	3975
1	1681	3976
1	1616	3977
1	1550	3978
1	1503	3979
1	1518	4000
1	1517	4001
1	1532	4002
1	1557	4003
1	1581	4004
1	1607	4005
1	1625	4006
1	1631	4006
1	1631	4008
1	1646	4009
1	1664	4010
1	1685	4011
1	1699	4012
1	1701	4013
1	1694	4014
1	1673	4014
1	1646	4016
1	1611	4017
1	1581	4018
1	1548	4019
1	1469	3980
1	1458	3981
1	1464	3982
1	1482	3983
1	1508	3984
1	1539	3985
1	1563	3986
1	1593	3987
1	1624	3988
1	1638	3989
1	1656	3990
1	1668	3991
1	1675	3992
1	1669	3993
1	1656	3994
1	1632	3995
1	1602	3996
1	1571	3997
1	1542	3998
1	1524	3999
1	1529	4020
1	1512	4021
1	1503	4022
1	1510	4022
1	1533	4024
1	1562	4025
1	1594	4026
1	1633	4027
1	1665	4028
1	1693	4029
1	1710	4030
1	1710	4030
1	1693	4032
1	1662	4033
1	1618	4034
1	1579	4035
1	1541	4036
1	1503	4037
1	1456	4038
1	1430	4038
1	1400	4040
1	1376	4041
1	1384	4042
1	1413	4043
1	1451	4044
1	1503	4045
1	1557	4046
1	1609	4046
1	1657	4048
1	1690	4049
1	1718	4050
1	1734	4051
1	1729	4052
1	1708	4053
1	1677	4054
1	1639	4054
1	1602	4056
1	1554	4057
1	1507	4058
1	1476	4059
1	1456	4060
1	1450	4061
1	1459	4062
1	1478	4062
1	1499	4064
1	1536	4065
1	1584	4066
1	1641	4067
1	1700	4068
1	1751	4069
1	1779	4070
1	1783	4070
1	1770	4072
1	1741	4073
1	1701	4074
1	1660	4075
1	1615	4076
1	1573	4077
1	1541	4078
1	1508	4078
1	1494	4080
1	1485	4081
1	1488	4082
1	1498	4083
1	1523	4084
1	1553	4085
1	1587	4086
1	1628	4086
1	1665	4088
1	1699	4089
1	1713	4090
1	1721	4091
1	1717	4092
1	1702	4093
1	1670	4094
1	1633	4094
1	1589	4096
1	1539	4097
1	1492	4098
1	1464	4099
1	1450	4100
1	1451	4101
1	1467	4102
1	1491	4103
1	1521	4104
1	1556	4105
1	1594	4106
1	1635	4107
1	1684	4108
1	1724	4109
1	1755	4110
1	1779	4111
1	1773	4112
1	1760	4113
1	1733	4114
1	1690	4115
1	1644	4116
1	1593	4117
1	1535	4118
1	1486	4119
1	1450	4120
1	1438	4121
1	1440	4122
1	1458	4123
1	1477	4124
1	1508	4125
1	1553	4126
1	1603	4127
1	1651	4128
1	1694	4129
1	1715	4130
1	1724	4131
1	1716	4132
1	1701	4133
1	1679	4134
1	1635	4135
1	1609	4136
1	1576	4137
1	1542	4138
1	1515	4139
1	1491	4140
1	1482	4141
1	1494	4142
1	1525	4143
1	1565	4144
1	1613	4145
1	1660	4146
1	1712	4147
1	1751	4148
1	1778	4149
1	1787	4150
1	1778	4151
1	1754	4152
1	1724	4153
1	1686	4154
1	1652	4155
1	1618	4156
1	1581	4157
1	1540	4158
1	1508	4159
1	1490	4160
1	1486	4161
1	1498	4162
1	1529	4163
1	1570	4164
1	1616	4165
1	1660	4166
1	1698	4167
1	1737	4168
1	1757	4169
1	1769	4170
1	1775	4171
1	1778	4172
1	1773	4173
1	1752	4174
1	1710	4175
1	1657	4176
1	1602	4177
1	1555	4178
1	1521	4179
1	1494	4180
1	1476	4181
1	1468	4182
1	1476	4183
1	1502	4184
1	1542	4185
1	1593	4186
1	1642	4187
1	1686	4188
1	1731	4189
1	1760	4190
1	1776	4191
1	1781	4192
1	1767	4193
1	1755	4194
1	1737	4195
1	1711	4196
1	1685	4197
1	1652	4198
1	1625	4199
1	1602	4200
1	1579	4201
1	1561	4202
1	1554	4203
1	1562	4204
1	1580	4205
1	1610	4206
1	1657	4207
1	1699	4208
1	1736	4209
1	1756	4210
1	1773	4211
1	1782	4212
1	1778	4213
1	1757	4214
1	1738	4215
1	1711	4216
1	1670	4217
1	1625	4218
1	1589	4219
1	1557	4220
1	1542	4221
1	1533	4222
1	1530	4223
1	1539	4224
1	1556	4225
1	1586	4226
1	1634	4227
1	1683	4228
1	1723	4229
1	1757	4230
1	1777	4231
1	1783	4232
1	1778	4233
1	1767	4234
1	1725	4235
1	1691	4236
1	1648	4237
1	1600	4238
1	1564	4239
1	1554	4260
1	1550	4261
1	1554	4262
1	1564	4263
1	1583	4264
1	1608	4265
1	1644	4266
1	1686	4267
1	1726	4268
1	1755	4269
1	1776	4270
1	1785	4271
1	1782	4272
1	1774	4273
1	1761	4274
1	1744	4275
1	1721	4276
1	1688	4277
1	1649	4278
1	1608	4279
1	1570	4280
1	1538	4281
1	1517	4282
1	1507	4283
1	1503	4284
1	1513	4285
1	1537	4286
1	1568	4287
1	1595	4288
1	1608	4289
1	1625	4290
1	1634	4291
1	1635	4292
1	1641	4293
1	1647	4294
1	1641	4295
1	1633	4296
1	1616	4297
1	1593	4298
1	1571	4299
1	1544	4240
1	1539	4241
1	1544	4242
1	1555	4243
1	1579	4244
1	1605	4245
1	1635	4246
1	1669	4247
1	1695	4248
1	1723	4249
1	1741	4250
1	1754	4251
1	1764	4252
1	1754	4253
1	1733	4254
1	1710	4255
1	1671	4256
1	1631	4257
1	1598	4258
1	1567	4259
1	1555	4300
1	1546	4301
1	1551	4302
1	1567	4303
1	1583	4304
1	1609	4305
1	1643	4306
1	1685	4307
1	1720	4308
1	1759	4309
1	1778	4310
1	1791	4311
1	1795	4312
1	1796	4313
1	1790	4314
1	1766	4315
1	1729	4316
1	1681	4317
1	1626	4318
1	1567	4319
1	1529	4320
1	1508	4321
1	1506	4322
1	1521	4323
1	1556	4324
1	1606	4325
1	1660	4326
1	1712	4327
1	1762	4328
1	1809	4329
1	1841	4330
1	1857	4331
1	1863	4332
1	1859	4333
1	1839	4334
1	1809	4335
1	1764	4336
1	1712	4337
1	1652	4338
1	1607	4339
1	1574	4340
1	1545	4341
1	1540	4342
1	1547	4343
1	1576	4344
1	1618	4345
1	1665	4346
1	1712	4347
1	1751	4348
1	1777	4349
1	1798	4350
1	1814	4351
1	1803	4352
1	1778	4353
1	1744	4354
1	1705	4355
1	1666	4356
1	1618	4357
1	1571	4358
1	1530	4359
1	1498	4360
1	1484	4361
1	1481	4362
1	1490	4363
1	1497	4364
1	1520	4365
1	1556	4366
1	1602	4367
1	1647	4368
1	1688	4369
1	1721	4370
1	1746	4371
1	1751	4372
1	1728	4373
1	1695	4374
1	1658	4375
1	1620	4376
1	1580	4377
1	1538	4378
1	1494	4379
1	1466	4380
1	1458	4381
1	1469	4382
1	1492	4383
1	1540	4384
1	1593	4385
1	1651	4386
1	1712	4387
1	1764	4388
1	1811	4389
1	1841	4390
1	1855	4391
1	1849	4392
1	1821	4393
1	1785	4394
1	1742	4395
1	1688	4396
1	1631	4397
1	1564	4398
1	1515	4399
1	1481	4400
1	1467	4401
1	1467	4402
1	1486	4403
1	1515	4404
1	1554	4405
1	1606	4406
1	1665	4407
1	1720	4408
1	1763	4409
1	1796	4410
1	1817	4411
1	1808	4412
1	1776	4413
1	1747	4414
1	1708	4415
1	1670	4416
1	1634	4417
1	1602	4418
1	1573	4419
1	1557	4420
1	1555	4421
1	1564	4422
1	1582	4423
1	1604	4424
1	1629	4425
1	1659	4426
1	1696	4427
1	1735	4428
1	1767	4429
1	1782	4430
1	1791	4431
1	1791	4432
1	1773	4433
1	1744	4434
1	1704	4435
1	1685	4436
1	1652	4437
1	1617	4438
1	1589	4439
1	1580	4440
1	1579	4441
1	1576	4442
1	1572	4443
1	1582	4444
1	1597	4445
1	1615	4446
1	1644	4447
1	1663	4448
1	1683	4449
1	1704	4450
1	1727	4451
1	1751	4452
1	1764	4453
1	1755	4454
1	1738	4455
1	1717	4456
1	1690	4457
1	1660	4458
1	1634	4459
1	1607	4460
1	1592	4461
1	1584	4462
1	1589	4463
1	1603	4464
1	1626	4465
1	1656	4466
1	1687	4467
1	1719	4468
1	1737	4469
1	1751	4470
1	1762	4471
1	1762	4472
1	1751	4473
1	1738	4474
1	1711	4475
1	1676	4476
1	1634	4477
1	1587	4478
1	1548	4479
1	1517	4480
1	1492	4481
1	1479	4482
1	1482	4483
1	1492	4484
1	1518	4485
1	1553	4486
1	1597	4487
1	1647	4488
1	1692	4489
1	1726	4490
1	1751	4491
1	1759	4492
1	1751	4493
1	1744	4494
1	1738	4495
1	1721	4496
1	1688	4497
1	1651	4498
1	1615	4499
1	1587	4500
1	1570	4501
1	1566	4502
1	1580	4503
1	1607	4504
1	1638	4505
1	1670	4506
1	1710	4507
1	1740	4508
1	1764	4509
1	1777	4510
1	1782	4511
1	1773	4512
1	1751	4513
1	1712	4514
1	1679	4515
1	1645	4516
1	1608	4517
1	1577	4518
1	1555	4519
1	1537	4520
1	1541	4521
1	1556	4522
1	1582	4523
1	1610	4524
1	1638	4525
1	1667	4526
1	1690	4527
1	1712	4528
1	1724	4529
1	1739	4530
1	1750	4531
1	1751	4532
1	1740	4533
1	1731	4534
1	1712	4535
1	1681	4536
1	1654	4537
1	1613	4538
1	1584	4539
1	1567	4540
1	1564	4541
1	1576	4542
1	1598	4543
1	1625	4544
1	1656	4545
1	1699	4546
1	1749	4547
1	1791	4548
1	1830	4549
1	1842	4550
1	1841	4551
1	1836	4552
1	1816	4553
1	1782	4554
1	1751	4555
1	1712	4556
1	1672	4557
1	1634	4558
1	1595	4559
1	1568	4560
1	1555	4561
1	1560	4562
1	1581	4563
1	1609	4564
1	1638	4565
1	1673	4566
1	1714	4567
1	1754	4568
1	1783	4569
1	1808	4570
1	1817	4571
1	1802	4572
1	1782	4573
1	1747	4574
1	1712	4575
1	1674	4576
1	1635	4577
1	1600	4578
1	1576	4579
1	1555	4580
1	1544	4581
1	1546	4582
1	1557	4583
1	1584	4584
1	1627	4585
1	1677	4586
1	1728	4587
1	1769	4588
1	1798	4589
1	1817	4590
1	1821	4591
1	1808	4592
1	1785	4593
1	1767	4594
1	1746	4595
1	1720	4596
1	1679	4597
1	1634	4598
1	1598	4599
1	1574	4600
1	1555	4601
1	1549	4602
1	1558	4603
1	1581	4604
1	1616	4605
1	1666	4606
1	1723	4607
1	1778	4608
1	1837	4609
1	1869	4610
1	1885	4611
1	1892	4612
1	1878	4613
1	1844	4614
1	1791	4615
1	1735	4616
1	1672	4617
1	1618	4618
1	1574	4619
1	1554	4620
1	1541	4621
1	1543	4622
1	1558	4623
1	1584	4624
1	1616	4625
1	1660	4626
1	1700	4627
1	1739	4628
1	1770	4629
1	1795	4630
1	1808	4631
1	1800	4632
1	1779	4633
1	1751	4634
1	1727	4635
1	1697	4636
1	1669	4637
1	1643	4638
1	1634	4639
1	1628	4640
1	1647	4641
1	1674	4642
1	1699	4643
1	1724	4644
1	1742	4645
1	1762	4646
1	1777	4647
1	1789	4648
1	1791	4649
1	1796	4650
1	1792	4651
1	1776	4652
1	1754	4653
1	1733	4654
1	1698	4655
1	1661	4656
1	1634	4657
1	1606	4658
1	1581	4659
1	1569	4660
1	1572	4661
1	1590	4662
1	1618	4663
1	1646	4664
1	1681	4665
1	1718	4666
1	1759	4667
1	1796	4668
1	1839	4669
1	1860	4670
1	1869	4671
1	1872	4672
1	1864	4673
1	1849	4674
1	1822	4675
1	1786	4676
1	1741	4677
1	1686	4678
1	1625	4679
1	1571	4680
1	1531	4681
1	1521	4682
1	1538	4683
1	1572	4684
1	1618	4685
1	1674	4686
1	1738	4687
1	1809	4688
1	1857	4689
1	1893	4690
1	1907	4691
1	1904	4692
1	1892	4693
1	1857	4694
1	1827	4695
1	1791	4696
1	1757	4697
1	1724	4698
1	1698	4699
1	1675	4700
1	1665	4701
1	1667	4702
1	1680	4703
1	1710	4704
1	1746	4705
1	1791	4706
1	1838	4707
1	1869	4708
1	1881	4709
1	1886	4710
1	1878	4711
1	1858	4712
1	1824	4713
1	1780	4714
1	1723	4715
1	1665	4716
1	1608	4717
1	1566	4718
1	1538	4719
1	1526	4720
1	1531	4721
1	1560	4722
1	1602	4723
1	1636	4724
1	1685	4725
1	1738	4726
1	1791	4727
1	1848	4728
1	1887	4729
1	1906	4730
1	1908	4731
1	1896	4732
1	1871	4733
1	1843	4734
1	1809	4735
1	1756	4736
1	1711	4737
1	1665	4738
1	1634	4739
1	1611	4740
1	1593	4741
1	1582	4742
1	1582	4743
1	1600	4744
1	1630	4745
1	1671	4746
1	1727	4747
1	1770	4748
1	1801	4749
1	1827	4750
1	1842	4751
1	1841	4752
1	1829	4753
1	1795	4754
1	1767	4755
1	1731	4756
1	1698	4757
1	1661	4758
1	1638	4759
1	1625	4760
1	1631	4761
1	1646	4762
1	1672	4763
1	1707	4764
1	1744	4765
1	1788	4766
1	1832	4767
1	1865	4768
1	1877	4769
1	1881	4770
1	1868	4771
1	1843	4772
1	1825	4773
1	1795	4774
1	1764	4775
1	1731	4776
1	1700	4777
1	1670	4778
1	1646	4779
1	1625	4780
1	1608	4781
1	1608	4782
1	1623	4783
1	1644	4784
1	1679	4785
1	1724	4786
1	1774	4787
1	1825	4788
1	1854	4789
1	1872	4790
1	1873	4791
1	1863	4792
1	1831	4793
1	1782	4794
1	1738	4795
1	1690	4796
1	1647	4797
1	1607	4798
1	1576	4799
1	1564	4800
1	1561	4801
1	1569	4802
1	1589	4803
1	1626	4804
1	1662	4805
1	1703	4806
1	1744	4807
1	1789	4808
1	1836	4809
1	1867	4810
1	1886	4811
1	1894	4812
1	1882	4813
1	1850	4814
1	1814	4815
1	1765	4816
1	1725	4817
1	1688	4818
1	1665	4819
1	1654	4820
1	1649	4821
1	1659	4822
1	1674	4823
1	1701	4824
1	1737	4825
1	1767	4826
1	1788	4827
1	1813	4828
1	1843	4829
1	1895	4830
1	1948	4831
1	1993	4832
1	2026	4833
1	2047	4834
1	2068	4835
1	2079	4836
1	2096	4837
1	2092	4838
1	2102	4839
1	2106	4840
1	2106	4841
1	2107	4842
1	2114	4843
1	2123	4844
1	2131	4845
1	2135	4846
1	2143	4847
1	2143	4848
1	2143	4849
1	2132	4850
1	2113	4851
1	2089	4852
1	2048	4853
1	1993	4854
1	1926	4855
1	1856	4856
1	1785	4857
1	1723	4858
1	1672	4859
1	1638	4860
1	1612	4861
1	1598	4862
1	1600	4863
1	1616	4864
1	1635	4865
1	1673	4866
1	1720	4867
1	1764	4868
1	1798	4869
1	1834	4870
1	1860	4871
1	1878	4872
1	1880	4873
1	1858	4874
1	1834	4875
1	1800	4876
1	1764	4877
1	1738	4878
1	1703	4879
1	1678	4880
1	1653	4881
1	1636	4882
1	1631	4883
1	1641	4884
1	1661	4885
1	1695	4886
1	1734	4887
1	1773	4888
1	1811	4889
1	1839	4890
1	1845	4891
1	1838	4892
1	1823	4893
1	1794	4894
1	1764	4895
1	1726	4896
1	1688	4897
1	1654	4898
1	1622	4899
1	1602	4900
1	1595	4901
1	1607	4902
1	1625	4903
1	1642	4904
1	1677	4905
1	1714	4906
1	1746	4907
1	1769	4908
1	1780	4909
1	1791	4910
1	1808	4911
1	1822	4912
1	1830	4913
1	1823	4914
1	1803	4915
1	1767	4916
1	1724	4917
1	1670	4918
1	1620	4919
1	1595	4920
1	1593	4921
1	1607	4922
1	1646	4923
1	1682	4924
1	1718	4925
1	1764	4926
1	1818	4927
1	1860	4928
1	1891	4929
1	1904	4930
1	1904	4931
1	1892	4932
1	1866	4933
1	1818	4934
1	1767	4935
1	1724	4936
1	1679	4937
1	1643	4938
1	1619	4939
1	1603	4940
1	1593	4941
1	1607	4942
1	1620	4943
1	1647	4944
1	1685	4945
1	1724	4946
1	1763	4947
1	1811	4948
1	1858	4949
1	1897	4950
1	1922	4951
1	1935	4952
1	1934	4953
1	1917	4954
1	1885	4955
1	1848	4956
1	1791	4957
1	1733	4958
1	1686	4959
1	1651	4960
1	1630	4961
1	1622	4962
1	1634	4963
1	1653	4964
1	1685	4965
1	1718	4966
1	1761	4967
1	1791	4968
1	1837	4969
1	1868	4970
1	1884	4971
1	1891	4972
1	1881	4973
1	1857	4974
1	1828	4975
1	1790	4976
1	1751	4977
1	1707	4978
1	1655	4979
1	1611	4980
1	1585	4981
1	1578	4982
1	1593	4983
1	1619	4984
1	1660	4985
1	1705	4986
1	1751	4987
1	1792	4988
1	1843	4989
1	1872	4990
1	1899	4991
1	1911	4992
1	1901	4993
1	1883	4994
1	1854	4995
1	1817	4996
1	1769	4997
1	1729	4998
1	1699	4999
1	1674	5000
1	1664	5001
1	1669	5002
1	1686	5003
1	1714	5004
1	1752	5005
1	1793	5006
1	1839	5007
1	1868	5008
1	1878	5009
1	1881	5010
1	1869	5011
1	1843	5012
1	1817	5013
1	1791	5014
1	1764	5015
1	1734	5016
1	1698	5017
1	1661	5018
1	1634	5019
1	1725	5040
1	1706	5041
1	1686	5042
1	1683	5043
1	1688	5044
1	1711	5045
1	1746	5046
1	1796	5047
1	1849	5048
1	1895	5049
1	1932	5050
1	1960	5051
1	1969	5052
1	1966	5053
1	1946	5054
1	1927	5055
1	1905	5056
1	1870	5057
1	1835	5058
1	1812	5059
1	1611	5020
1	1603	5021
1	1610	5022
1	1637	5023
1	1672	5024
1	1727	5025
1	1790	5026
1	1852	5027
1	1907	5028
1	1935	5029
1	1950	5030
1	1962	5031
1	1966	5032
1	1956	5033
1	1935	5034
1	1905	5035
1	1869	5036
1	1834	5037
1	1791	5038
1	1752	5039
1	1783	5060
1	1764	5061
1	1756	5062
1	1764	5063
1	1785	5064
1	1816	5065
1	1852	5066
1	1891	5067
1	1923	5068
1	1940	5069
1	1950	5070
1	1953	5071
1	1948	5072
1	1946	5073
1	1932	5074
1	1913	5075
1	1894	5076
1	1866	5077
1	1838	5078
1	1817	5079
1	1754	5100
1	1733	5101
1	1724	5102
1	1732	5103
1	1751	5104
1	1780	5105
1	1817	5106
1	1856	5107
1	1900	5108
1	1930	5109
1	1938	5110
1	1933	5111
1	1919	5112
1	1893	5113
1	1853	5114
1	1822	5115
1	1787	5116
1	1747	5117
1	1711	5118
1	1688	5119
1	1801	5080
1	1808	5081
1	1826	5082
1	1854	5083
1	1883	5084
1	1923	5085
1	1973	5086
1	2013	5087
1	2052	5088
1	2074	5089
1	2083	5090
1	2081	5091
1	2070	5092
1	2042	5093
1	2012	5094
1	1975	5095
1	1939	5096
1	1895	5097
1	1843	5098
1	1791	5099
1	1679	5120
1	1683	5121
1	1699	5122
1	1726	5123
1	1764	5124
1	1809	5125
1	1854	5126
1	1886	5127
1	1914	5128
1	1919	5129
1	1917	5130
1	1904	5131
1	1885	5132
1	1859	5133
1	1818	5134
1	1766	5135
1	1715	5136
1	1675	5137
1	1633	5138
1	1589	5139
1	1589	5160
1	1573	5161
1	1575	5162
1	1589	5163
1	1613	5164
1	1644	5165
1	1682	5166
1	1719	5167
1	1759	5168
1	1792	5169
1	1821	5170
1	1835	5171
1	1830	5172
1	1809	5173
1	1767	5174
1	1736	5175
1	1698	5176
1	1654	5177
1	1611	5178
1	1563	5179
1	1559	5140
1	1544	5141
1	1548	5142
1	1571	5143
1	1606	5144
1	1643	5145
1	1686	5146
1	1731	5147
1	1769	5148
1	1799	5149
1	1817	5150
1	1820	5151
1	1832	5152
1	1831	5153
1	1821	5154
1	1802	5155
1	1765	5156
1	1723	5157
1	1671	5158
1	1622	5159
1	1523	5180
1	1501	5181
1	1502	5182
1	1518	5183
1	1547	5184
1	1581	5185
1	1622	5186
1	1671	5187
1	1721	5188
1	1751	5189
1	1765	5190
1	1764	5191
1	1747	5192
1	1726	5193
1	1695	5194
1	1656	5195
1	1612	5196
1	1575	5197
1	1532	5198
1	1500	5199
1	1476	5200
1	1467	5201
1	1477	5202
1	1503	5203
1	1542	5204
1	1592	5205
1	1644	5206
1	1688	5207
1	1723	5208
1	1752	5209
1	1762	5210
1	1760	5211
1	1742	5212
1	1728	5213
1	1708	5214
1	1688	5215
1	1665	5216
1	1638	5217
1	1611	5218
1	1585	5219
1	1573	5220
1	1571	5221
1	1577	5222
1	1587	5223
1	1610	5224
1	1631	5225
1	1648	5226
1	1674	5227
1	1706	5228
1	1738	5229
1	1767	5230
1	1787	5231
1	1786	5232
1	1768	5233
1	1734	5234
1	1695	5235
1	1650	5236
1	1605	5237
1	1559	5238
1	1529	5239
1	1500	5240
1	1492	5241
1	1500	5242
1	1516	5243
1	1545	5244
1	1586	5245
1	1634	5246
1	1674	5247
1	1713	5248
1	1744	5249
1	1769	5250
1	1778	5251
1	1766	5252
1	1751	5253
1	1730	5254
1	1707	5255
1	1683	5256
1	1654	5257
1	1625	5258
1	1588	5259
1	1557	5260
1	1537	5261
1	1529	5262
1	1531	5263
1	1544	5264
1	1573	5265
1	1611	5266
1	1655	5267
1	1695	5268
1	1736	5269
1	1755	5270
1	1769	5271
1	1771	5272
1	1750	5273
1	1713	5274
1	1670	5275
1	1626	5276
1	1585	5277
1	1556	5278
1	1532	5279
1	1523	5280
1	1524	5281
1	1536	5282
1	1566	5283
1	1605	5284
1	1648	5285
1	1690	5286
1	1731	5287
1	1765	5288
1	1793	5289
1	1817	5290
1	1822	5291
1	1812	5292
1	1775	5293
1	1737	5294
1	1688	5295
1	1639	5296
1	1593	5297
1	1546	5298
1	1517	5299
1	1492	5300
1	1490	5301
1	1503	5302
1	1527	5303
1	1557	5304
1	1600	5305
1	1639	5306
1	1678	5307
1	1711	5308
1	1738	5309
1	1768	5310
1	1791	5311
1	1800	5312
1	1791	5313
1	1779	5314
1	1747	5315
1	1710	5316
1	1672	5317
1	1631	5318
1	1593	5319
1	1566	5320
1	1546	5321
1	1538	5322
1	1545	5323
1	1557	5324
1	1582	5325
1	1620	5326
1	1660	5327
1	1706	5328
1	1736	5329
1	1751	5330
1	1754	5331
1	1742	5332
1	1724	5333
1	1699	5334
1	1673	5335
1	1641	5336
1	1612	5337
1	1582	5338
1	1555	5339
1	1530	5340
1	1514	5341
1	1511	5342
1	1524	5343
1	1551	5344
1	1581	5345
1	1629	5346
1	1687	5347
1	1738	5348
1	1780	5349
1	1803	5350
1	1810	5351
1	1796	5352
1	1777	5353
1	1738	5354
1	1700	5355
1	1660	5356
1	1609	5357
1	1560	5358
1	1529	5359
1	1495	5360
1	1477	5361
1	1480	5362
1	1503	5363
1	1541	5364
1	1589	5365
1	1644	5366
1	1697	5367
1	1744	5368
1	1775	5369
1	1796	5370
1	1796	5371
1	1782	5372
1	1760	5373
1	1727	5374
1	1688	5375
1	1651	5376
1	1608	5377
1	1567	5378
1	1528	5379
1	1500	5380
1	1489	5381
1	1490	5382
1	1511	5383
1	1541	5384
1	1581	5385
1	1619	5386
1	1661	5387
1	1705	5388
1	1738	5389
1	1760	5390
1	1769	5391
1	1761	5392
1	1729	5393
1	1698	5394
1	1664	5395
1	1632	5396
1	1585	5397
1	1547	5398
1	1510	5399
1	1488	5400
1	1478	5401
1	1489	5402
1	1518	5403
1	1566	5404
1	1616	5405
1	1662	5406
1	1702	5407
1	1737	5408
1	1757	5409
1	1764	5410
1	1760	5411
1	1753	5412
1	1742	5413
1	1722	5414
1	1697	5415
1	1662	5416
1	1628	5417
1	1589	5418
1	1564	5419
1	1543	5420
1	1529	5421
1	1526	5422
1	1534	5423
1	1559	5424
1	1590	5425
1	1617	5426
1	1641	5427
1	1661	5428
1	1669	5429
1	1671	5430
1	1663	5431
1	1645	5432
1	1621	5433
1	1589	5434
1	1564	5435
1	1544	5436
1	1544	5437
1	1531	5438
1	1518	5439
1	1503	5440
1	1489	5441
1	1485	5442
1	1491	5443
1	1511	5444
1	1536	5445
1	1573	5446
1	1620	5447
1	1665	5448
1	1706	5449
1	1738	5450
1	1760	5451
1	1777	5452
1	1776	5453
1	1764	5454
1	1737	5455
1	1695	5456
1	1655	5457
1	1613	5458
1	1577	5459
1	1555	5480
1	1549	5481
1	1550	5482
1	1566	5483
1	1595	5484
1	1629	5485
1	1662	5486
1	1708	5487
1	1751	5488
1	1787	5489
1	1809	5490
1	1817	5491
1	1811	5492
1	1787	5493
1	1746	5494
1	1712	5495
1	1686	5496
1	1658	5497
1	1632	5498
1	1594	5499
1	1553	5480
1	1514	5481
1	1499	5482
1	1501	5483
1	1517	5484
1	1537	5485
1	1567	5486
1	1607	5487
1	1641	5488
1	1657	5489
1	1663	5490
1	1664	5491
1	1660	5492
1	1646	5493
1	1630	5494
1	1608	5495
1	1589	5496
1	1562	5497
1	1535	5498
1	1511	5499
1	1490	5500
1	1479	5501
1	1481	5502
1	1503	5503
1	1532	5504
1	1581	5505
1	1634	5506
1	1683	5507
1	1729	5508
1	1778	5509
1	1803	5510
1	1816	5511
1	1809	5512
1	1790	5513
1	1767	5514
1	1739	5515
1	1702	5516
1	1660	5517
1	1611	5518
1	1569	5519
1	1538	5520
1	1517	5521
1	1507	5522
1	1512	5523
1	1529	5524
1	1542	5525
1	1566	5526
1	1597	5527
1	1634	5528
1	1672	5529
1	1703	5530
1	1725	5531
1	1736	5532
1	1734	5533
1	1714	5534
1	1693	5535
1	1660	5536
1	1615	5537
1	1568	5538
1	1530	5539
1	1500	5540
1	1492	5541
1	1502	5542
1	1525	5543
1	1555	5544
1	1590	5545
1	1630	5546
1	1673	5547
1	1714	5548
1	1747	5549
1	1772	5550
1	1778	5551
1	1766	5552
1	1742	5553
1	1710	5554
1	1674	5555
1	1647	5556
1	1611	5557
1	1581	5558
1	1557	5559
1	1544	5560
1	1533	5561
1	1531	5562
1	1546	5563
1	1569	5564
1	1604	5565
1	1639	5566
1	1675	5567
1	1698	5568
1	1714	5569
1	1717	5570
1	1724	5571
1	1725	5572
1	1721	5573
1	1715	5574
1	1701	5575
1	1674	5576
1	1635	5577
1	1597	5578
1	1555	5579
1	1529	5580
1	1516	5581
1	1521	5582
1	1543	5583
1	1568	5584
1	1590	5585
1	1616	5586
1	1645	5587
1	1674	5588
1	1695	5589
1	1715	5590
1	1726	5591
1	1724	5592
1	1706	5593
1	1687	5594
1	1670	5595
1	1646	5596
1	1613	5597
1	1576	5598
1	1543	5599
1	1520	5600
1	1503	5601
1	1508	5602
1	1530	5603
1	1567	5604
1	1605	5605
1	1638	5606
1	1675	5607
1	1701	5608
1	1709	5609
1	1709	5610
1	1701	5611
1	1682	5612
1	1654	5613
1	1630	5614
1	1602	5615
1	1572	5616
1	1544	5617
1	1523	5618
1	1508	5619
1	1498	5620
1	1491	5621
1	1494	5622
1	1513	5623
1	1538	5624
1	1580	5625
1	1627	5626
1	1677	5627
1	1724	5628
1	1751	5629
1	1764	5630
1	1777	5631
1	1782	5632
1	1777	5633
1	1749	5634
1	1712	5635
1	1660	5636
1	1606	5637
1	1548	5638
1	1505	5639
1	1476	5640
1	1464	5641
1	1467	5642
1	1489	5643
1	1529	5644
1	1579	5645
1	1635	5646
1	1701	5647
1	1751	5648
1	1791	5649
1	1817	5650
1	1826	5651
1	1817	5652
1	1783	5653
1	1733	5654
1	1685	5655
1	1634	5656
1	1582	5657
1	1536	5658
1	1508	5659
1	1492	5660
1	1491	5661
1	1503	5662
1	1521	5663
1	1551	5664
1	1581	5665
1	1617	5666
1	1660	5667
1	1698	5668
1	1723	5669
1	1742	5670
1	1753	5671
1	1751	5672
1	1744	5673
1	1718	5674
1	1679	5675
1	1634	5676
1	1594	5677
1	1559	5678
1	1530	5679
1	1518	5680
1	1515	5681
1	1529	5682
1	1555	5683
1	1581	5684
1	1612	5685
1	1647	5686
1	1671	5687
1	1699	5688
1	1713	5689
1	1722	5690
1	1720	5691
1	1712	5692
1	1697	5693
1	1675	5694
1	1647	5695
1	1614	5696
1	1580	5697
1	1539	5698
1	1503	5699
1	1490	5700
1	1493	5701
1	1503	5702
1	1530	5703
1	1553	5704
1	1581	5705
1	1616	5706
1	1651	5707
1	1686	5708
1	1708	5709
1	1717	5710
1	1718	5711
1	1710	5712
1	1686	5713
1	1659	5714
1	1634	5715
1	1607	5716
1	1572	5717
1	1541	5718
1	1508	5719
1	1489	5720
1	1482	5721
1	1492	5722
1	1517	5723
1	1544	5724
1	1575	5725
1	1607	5726
1	1634	5727
1	1662	5728
1	1678	5729
1	1682	5730
1	1674	5731
1	1660	5732
1	1654	5733
1	1634	5734
1	1608	5735
1	1577	5736
1	1545	5737
1	1508	5738
1	1485	5739
1	1490	5760
1	1474	5761
1	1476	5762
1	1493	5763
1	1525	5764
1	1555	5765
1	1593	5766
1	1634	5767
1	1678	5768
1	1717	5769
1	1743	5770
1	1755	5771
1	1753	5772
1	1740	5773
1	1712	5774
1	1683	5775
1	1644	5776
1	1603	5777
1	1566	5778
1	1530	5779
1	1476	5740
1	1476	5741
1	1485	5742
1	1503	5743
1	1521	5744
1	1549	5745
1	1589	5746
1	1633	5747
1	1673	5748
1	1710	5749
1	1733	5750
1	1742	5751
1	1742	5752
1	1728	5753
1	1702	5754
1	1670	5755
1	1634	5756
1	1600	5757
1	1566	5758
1	1521	5759
1	1504	5780
1	1492	5781
1	1491	5782
1	1499	5783
1	1512	5784
1	1531	5785
1	1566	5786
1	1600	5787
1	1631	5788
1	1647	5789
1	1661	5790
1	1661	5791
1	1656	5792
1	1647	5793
1	1634	5794
1	1614	5795
1	1592	5796
1	1562	5797
1	1537	5798
1	1518	5799
1	1510	5800
1	1508	5801
1	1518	5802
1	1530	5803
1	1546	5804
1	1571	5805
1	1607	5806
1	1649	5807
1	1706	5808
1	1747	5809
1	1773	5810
1	1778	5811
1	1764	5812
1	1737	5813
1	1697	5814
1	1643	5815
1	1587	5816
1	1538	5817
1	1492	5818
1	1453	5819
1	1434	5820
1	1427	5821
1	1430	5822
1	1450	5823
1	1485	5824
1	1534	5825
1	1594	5826
1	1657	5827
1	1705	5828
1	1742	5829
1	1765	5830
1	1778	5831
1	1775	5832
1	1760	5833
1	1724	5834
1	1684	5835
1	1634	5836
1	1587	5837
1	1540	5838
1	1508	5839
1	1485	5840
1	1476	5841
1	1477	5842
1	1500	5843
1	1538	5844
1	1583	5845
1	1631	5846
1	1665	5847
1	1690	5848
1	1706	5849
1	1707	5850
1	1699	5851
1	1686	5852
1	1672	5853
1	1652	5854
1	1629	5855
1	1595	5856
1	1565	5857
1	1527	5858
1	1490	5859
1	1465	5860
1	1453	5861
1	1459	5862
1	1488	5863
1	1527	5864
1	1580	5865
1	1636	5866
1	1688	5867
1	1738	5868
1	1785	5869
1	1815	5870
1	1827	5871
1	1824	5872
1	1796	5873
1	1759	5874
1	1715	5875
1	1661	5876
1	1607	5877
1	1555	5878
1	1499	5879
1	1459	5880
1	1436	5881
1	1431	5882
1	1452	5883
1	1481	5884
1	1518	5885
1	1556	5886
1	1597	5887
1	1631	5888
1	1656	5889
1	1667	5890
1	1671	5891
1	1660	5892
1	1645	5893
1	1611	5894
1	1581	5895
1	1544	5896
1	1508	5897
1	1484	5898
1	1468	5899
1	1464	5900
1	1472	5901
1	1490	5902
1	1518	5903
1	1557	5904
1	1608	5905
1	1660	5906
1	1710	5907
1	1751	5908
1	1782	5909
1	1808	5910
1	1813	5911
1	1791	5912
1	1775	5913
1	1752	5914
1	1737	5915
1	1714	5916
1	1686	5917
1	1656	5918
1	1625	5919
1	1597	5920
1	1575	5921
1	1563	5922
1	1571	5923
1	1577	5924
1	1590	5925
1	1616	5926
1	1646	5927
1	1685	5928
1	1715	5929
1	1738	5930
1	1753	5931
1	1760	5932
1	1751	5933
1	1719	5934
1	1683	5935
1	1632	5936
1	1589	5937
1	1551	5938
1	1521	5939
1	1502	5940
1	1495	5941
1	1504	5942
1	1529	5943
1	1555	5944
1	1587	5945
1	1616	5946
1	1651	5947
1	1691	5948
1	1720	5949
1	1740	5950
1	1746	5951
1	1742	5952
1	1733	5953
1	1710	5954
1	1681	5955
1	1649	5956
1	1623	5957
1	1611	5958
1	1606	5959
1	1610	5960
1	1626	5961
1	1651	5962
1	1679	5963
1	1712	5964
1	1736	5965
1	1755	5966
1	1769	5967
1	1782	5968
1	1788	5969
1	1800	5970
1	1808	5971
1	1796	5972
1	1779	5973
1	1744	5974
1	1703	5975
1	1660	5976
1	1609	5977
1	1563	5978
1	1520	5979
1	1490	5980
1	1476	5981
1	1491	5982
1	1521	5983
1	1557	5984
1	1605	5985
1	1649	5986
1	1694	5987
1	1745	5988
1	1786	5989
1	1827	5990
1	1850	5991
1	1854	5992
1	1841	5993
1	1817	5994
1	1781	5995
1	1738	5996
1	1687	5997
1	1633	5998
1	1581	5999
1	1553	6000
1	1531	6001
1	1529	6002
1	1539	6003
1	1557	6004
1	1589	6005
1	1629	6006
1	1668	6007
1	1706	6008
1	1729	6009
1	1738	6010
1	1742	6011
1	1739	6012
1	1723	6013
1	1685	6014
1	1634	6015
1	1586	6016
1	1545	6017
1	1518	6018
1	1500	6019
1	1501	6020
1	1521	6021
1	1556	6022
1	1606	6023
1	1651	6024
1	1688	6025
1	1728	6026
1	1763	6027
1	1791	6028
1	1802	6029
1	1801	6030
1	1782	6031
1	1746	6032
1	1704	6033
1	1652	6034
1	1607	6035
1	1562	6036
1	1517	6037
1	1499	6038
1	1477	6039
1	1466	6040
1	1467	6041
1	1478	6042
1	1503	6043
1	1541	6044
1	1583	6045
1	1629	6046
1	1669	6047
1	1709	6048
1	1742	6049
1	1767	6050
1	1785	6051
1	1790	6052
1	1786	6053
1	1764	6054
1	1742	6055
1	1716	6056
1	1688	6057
1	1649	6058
1	1608	6059
1	1581	6060
1	1555	6061
1	1542	6062
1	1548	6063
1	1580	6064
1	1616	6065
1	1652	6066
1	1696	6067
1	1738	6068
1	1764	6069
1	1785	6070
1	1799	6071
1	1814	6072
1	1818	6073
1	1812	6074
1	1796	6075
1	1782	6076
1	1764	6077
1	1762	6078
1	1755	6079
1	1755	6080
1	1760	6081
1	1772	6082
1	1795	6083
1	1836	6084
1	1875	6085
1	1923	6086
1	1976	6087
1	2027	6088
1	2064	6089
1	2099	6090
1	2120	6091
1	2133	6092
1	2133	6093
1	2116	6094
1	2087	6095
1	2050	6096
1	2001	6097
1	1957	6098
1	1922	6099
1	1892	6100
1	1873	6101
1	1869	6102
1	1873	6103
1	1872	6104
1	1868	6105
1	1856	6106
1	1841	6107
1	1830	6108
1	1811	6109
1	1778	6110
1	1740	6111
1	1706	6112
1	1668	6113
1	1638	6114
1	1607	6115
1	1581	6116
1	1553	6117
1	1519	6118
1	1485	6119
1	1463	6120
1	1451	6121
1	1456	6122
1	1484	6123
1	1520	6124
1	1558	6125
1	1603	6126
1	1642	6127
1	1680	6128
1	1704	6129
1	1712	6130
1	1708	6131
1	1693	6132
1	1677	6133
1	1647	6134
1	1616	6135
1	1581	6136
1	1548	6137
1	1518	6138
1	1503	6139
1	1490	6140
1	1492	6141
1	1508	6142
1	1536	6143
1	1578	6144
1	1616	6145
1	1661	6146
1	1707	6147
1	1741	6148
1	1764	6149
1	1771	6150
1	1772	6151
1	1764	6152
1	1752	6153
1	1727	6154
1	1693	6155
1	1652	6156
1	1626	6157
1	1598	6158
1	1569	6159
1	1549	6160
1	1539	6161
1	1531	6162
1	1530	6163
1	1532	6164
1	1549	6165
1	1577	6166
1	1615	6167
1	1659	6168
1	1701	6169
1	1725	6170
1	1742	6171
1	1746	6172
1	1737	6173
1	1711	6174
1	1681	6175
1	1646	6176
1	1607	6177
1	1569	6178
1	1537	6179
1	1520	6180
1	1513	6181
1	1520	6182
1	1541	6183
1	1566	6184
1	1605	6185
1	1643	6186
1	1682	6187
1	1712	6188
1	1738	6189
1	1750	6190
1	1755	6191
1	1749	6192
1	1731	6193
1	1686	6194
1	1634	6195
1	1584	6196
1	1542	6197
1	1508	6198
1	1477	6199
1	1461	6200
1	1458	6201
1	1476	6202
1	1512	6203
1	1554	6204
1	1597	6205
1	1647	6206
1	1691	6207
1	1737	6208
1	1764	6209
1	1787	6210
1	1791	6211
1	1782	6212
1	1762	6213
1	1721	6214
1	1685	6215
1	1648	6216
1	1618	6217
1	1595	6218
1	1585	6219
1	1589	6220
1	1598	6221
1	1613	6222
1	1634	6223
1	1647	6224
1	1663	6225
1	1682	6226
1	1687	6227
1	1705	6228
1	1715	6229
1	1724	6230
1	1723	6231
1	1713	6232
1	1698	6233
1	1677	6234
1	1656	6235
1	1621	6236
1	1592	6237
1	1561	6238
1	1551	6239
1	1551	6240
1	1563	6241
1	1581	6242
1	1607	6243
1	1643	6244
1	1683	6245
1	1726	6246
1	1765	6247
1	1812	6248
1	1838	6249
1	1849	6250
1	1846	6251
1	1827	6252
1	1792	6253
1	1751	6254
1	1712	6255
1	1671	6256
1	1621	6257
1	1563	6258
1	1521	6259
1	1494	6260
1	1494	6261
1	1513	6262
1	1535	6263
1	1557	6264
1	1591	6265
1	1630	6266
1	1679	6267
1	1727	6268
1	1764	6269
1	1791	6270
1	1809	6271
1	1809	6272
1	1798	6273
1	1767	6274
1	1730	6275
1	1686	6276
1	1647	6277
1	1607	6278
1	1581	6279
1	1568	6280
1	1564	6281
1	1581	6282
1	1613	6283
1	1657	6284
1	1711	6285
1	1764	6286
1	1814	6287
1	1862	6288
1	1898	6289
1	1924	6290
1	1940	6291
1	1929	6292
1	1906	6293
1	1868	6294
1	1824	6295
1	1769	6296
1	1722	6297
1	1669	6298
1	1623	6299
1	1595	6300
1	1583	6301
1	1584	6302
1	1607	6303
1	1639	6304
1	1686	6305
1	1744	6306
1	1809	6307
1	1858	6308
1	1895	6309
1	1922	6310
1	1927	6311
1	1926	6312
1	1912	6313
1	1879	6314
1	1845	6315
1	1800	6316
1	1751	6317
1	1713	6318
1	1680	6319
1	1660	6320
1	1657	6321
1	1667	6322
1	1688	6323
1	1715	6324
1	1749	6325
1	1785	6326
1	1827	6327
1	1863	6328
1	1883	6329
1	1888	6330
1	1875	6331
1	1856	6332
1	1843	6333
1	1816	6334
1	1780	6335
1	1746	6336
1	1702	6337
1	1660	6338
1	1634	6339
1	1660	6360
1	1636	6361
1	1630	6362
1	1636	6363
1	1664	6364
1	1690	6365
1	1719	6366
1	1756	6367
1	1800	6368
1	1838	6369
1	1858	6370
1	1869	6371
1	1877	6372
1	1872	6373
1	1851	6374
1	1820	6375
1	1773	6376
1	1728	6377
1	1688	6378
1	1651	6379
1	1634	6340
1	1648	6341
1	1679	6342
1	1722	6343
1	1772	6344
1	1826	6345
1	1872	6346
1	1921	6347
1	1961	6348
1	1985	6349
1	1998	6350
1	1998	6351
1	1985	6352
1	1968	6353
1	1929	6354
1	1881	6355
1	1834	6356
1	1782	6357
1	1739	6358
1	1693	6359
1	1629	6380
1	1616	6381
1	1613	6382
1	1621	6383
1	1641	6384
1	1669	6385
1	1700	6386
1	1733	6387
1	1760	6388
1	1776	6389
1	1789	6390
1	1791	6391
1	1780	6392
1	1767	6393
1	1747	6394
1	1724	6395
1	1692	6396
1	1660	6397
1	1634	6398
1	1613	6399
1	1603	6400
1	1599	6401
1	1607	6402
1	1625	6403
1	1647	6404
1	1683	6405
1	1713	6406
1	1742	6407
1	1769	6408
1	1782	6409
1	1782	6410
1	1772	6411
1	1752	6412
1	1724	6413
1	1687	6414
1	1647	6415
1	1603	6416
1	1557	6417
1	1508	6418
1	1459	6419
1	1425	6420
1	1411	6421
1	1418	6422
1	1449	6423
1	1489	6424
1	1545	6425
1	1603	6426
1	1656	6427
1	1697	6428
1	1724	6429
1	1742	6430
1	1753	6431
1	1752	6432
1	1738	6433
1	1712	6434
1	1686	6435
1	1651	6436
1	1608	6437
1	1569	6438
1	1537	6439
1	1503	6440
1	1481	6441
1	1473	6442
1	1476	6443
1	1493	6444
1	1521	6445
1	1561	6446
1	1602	6447
1	1643	6448
1	1669	6449
1	1691	6450
1	1699	6451
1	1694	6452
1	1677	6453
1	1644	6454
1	1605	6455
1	1571	6456
1	1536	6457
1	1505	6458
1	1487	6459
1	1477	6460
1	1481	6461
1	1495	6462
1	1518	6463
1	1543	6464
1	1580	6465
1	1615	6466
1	1651	6467
1	1673	6468
1	1687	6469
1	1686	6470
1	1670	6471
1	1651	6472
1	1629	6473
1	1607	6474
1	1590	6475
1	1580	6476
1	1569	6477
1	1556	6478
1	1539	6479
1	1530	6480
1	1526	6481
1	1523	6482
1	1534	6483
1	1553	6484
1	1581	6485
1	1605	6486
1	1634	6487
1	1670	6488
1	1700	6489
1	1723	6490
1	1736	6491
1	1734	6492
1	1713	6493
1	1682	6494
1	1643	6495
1	1602	6496
1	1559	6497
1	1526	6498
1	1490	6499
1	1464	6500
1	1451	6501
1	1458	6502
1	1487	6503
1	1529	6504
1	1580	6505
1	1634	6506
1	1684	6507
1	1731	6508
1	1763	6509
1	1782	6510
1	1780	6511
1	1755	6512
1	1733	6513
1	1691	6514
1	1650	6515
1	1620	6516
1	1585	6517
1	1553	6518
1	1529	6519
1	1521	6520
1	1526	6521
1	1544	6522
1	1575	6523
1	1607	6524
1	1641	6525
1	1661	6526
1	1674	6527
1	1693	6528
1	1705	6529
1	1712	6530
1	1713	6531
1	1708	6532
1	1686	6533
1	1657	6534
1	1623	6535
1	1584	6536
1	1546	6537
1	1504	6538
1	1474	6539
1	1454	6540
1	1450	6541
1	1461	6542
1	1483	6543
1	1523	6544
1	1561	6545
1	1609	6546
1	1660	6547
1	1708	6548
1	1735	6549
1	1747	6550
1	1755	6551
1	1760	6552
1	1756	6553
1	1736	6554
1	1703	6555
1	1663	6556
1	1618	6557
1	1570	6558
1	1538	6559
1	1513	6560
1	1508	6561
1	1522	6562
1	1554	6563
1	1589	6564
1	1628	6565
1	1661	6566
1	1698	6567
1	1728	6568
1	1746	6569
1	1755	6570
1	1755	6571
1	1747	6572
1	1738	6573
1	1721	6574
1	1695	6575
1	1660	6576
1	1626	6577
1	1584	6578
1	1550	6579
1	1526	6580
1	1517	6581
1	1527	6582
1	1553	6583
1	1576	6584
1	1606	6585
1	1632	6586
1	1656	6587
1	1692	6588
1	1724	6589
1	1751	6590
1	1764	6591
1	1765	6592
1	1755	6593
1	1738	6594
1	1709	6595
1	1660	6596
1	1607	6597
1	1554	6598
1	1510	6599
1	1485	6600
1	1476	6601
1	1484	6602
1	1513	6603
1	1553	6604
1	1607	6605
1	1670	6606
1	1727	6607
1	1766	6608
1	1793	6609
1	1803	6610
1	1799	6611
1	1786	6612
1	1764	6613
1	1731	6614
1	1699	6615
1	1661	6616
1	1633	6617
1	1598	6618
1	1571	6619
1	1550	6620
1	1544	6621
1	1555	6622
1	1572	6623
1	1597	6624
1	1625	6625
1	1656	6626
1	1687	6627
1	1716	6628
1	1736	6629
1	1751	6630
1	1769	6631
1	1782	6632
1	1782	6633
1	1763	6634
1	1730	6635
1	1688	6636
1	1634	6637
1	1584	6638
1	1544	6639
1	1526	6640
1	1512	6641
1	1511	6642
1	1529	6643
1	1557	6644
1	1595	6645
1	1638	6646
1	1685	6647
1	1721	6648
1	1749	6649
1	1762	6650
1	1769	6651
1	1769	6652
1	1764	6653
1	1740	6654
1	1706	6655
1	1664	6656
1	1629	6657
1	1593	6658
1	1562	6659
1	1547	6660
1	1546	6661
1	1560	6662
1	1582	6663
1	1609	6664
1	1632	6665
1	1660	6666
1	1693	6667
1	1721	6668
1	1742	6669
1	1756	6670
1	1765	6671
1	1772	6672
1	1766	6673
1	1747	6674
1	1724	6675
1	1686	6676
1	1647	6677
1	1615	6678
1	1579	6679
1	1542	6680
1	1525	6681
1	1521	6682
1	1537	6683
1	1562	6684
1	1605	6685
1	1656	6686
1	1704	6687
1	1746	6688
1	1777	6689
1	1809	6690
1	1821	6691
1	1815	6692
1	1793	6693
1	1762	6694
1	1719	6695
1	1674	6696
1	1622	6697
1	1577	6698
1	1540	6699
1	1517	6700
1	1508	6701
1	1520	6702
1	1547	6703
1	1580	6704
1	1619	6705
1	1660	6706
1	1691	6707
1	1720	6708
1	1734	6709
1	1737	6710
1	1740	6711
1	1735	6712
1	1720	6713
1	1700	6714
1	1674	6715
1	1646	6716
1	1618	6717
1	1593	6718
1	1571	6719
1	1561	6720
1	1566	6721
1	1590	6722
1	1631	6723
1	1675	6724
1	1711	6725
1	1741	6726
1	1765	6727
1	1786	6728
1	1791	6729
1	1792	6730
1	1791	6731
1	1779	6732
1	1751	6733
1	1701	6734
1	1647	6735
1	1593	6736
1	1541	6737
1	1498	6738
1	1476	6739
1	1460	6740
1	1458	6741
1	1474	6742
1	1508	6743
1	1555	6744
1	1603	6745
1	1656	6746
1	1701	6747
1	1738	6748
1	1757	6749
1	1768	6750
1	1768	6751
1	1762	6752
1	1749	6753
1	1727	6754
1	1694	6755
1	1668	6756
1	1638	6757
1	1613	6758
1	1594	6759
1	1583	6760
1	1584	6761
1	1598	6762
1	1622	6763
1	1643	6764
1	1669	6765
1	1697	6766
1	1726	6767
1	1757	6768
1	1788	6769
1	1803	6770
1	1814	6771
1	1808	6772
1	1793	6773
1	1772	6774
1	1746	6775
1	1710	6776
1	1661	6777
1	1611	6778
1	1562	6779
1	1598	6800
1	1607	6801
1	1624	6802
1	1656	6803
1	1692	6804
1	1739	6805
1	1791	6806
1	1841	6807
1	1886	6808
1	1913	6809
1	1932	6810
1	1926	6811
1	1904	6812
1	1865	6813
1	1820	6814
1	1757	6815
1	1705	6816
1	1658	6817
1	1613	6818
1	1582	6819
1	1525	6780
1	1500	6781
1	1503	6782
1	1529	6783
1	1569	6784
1	1618	6785
1	1667	6786
1	1710	6787
1	1739	6788
1	1767	6789
1	1793	6790
1	1814	6791
1	1817	6792
1	1796	6793
1	1762	6794
1	1721	6795
1	1684	6796
1	1651	6797
1	1625	6798
1	1607	6799
1	1557	6820
1	1552	6821
1	1556	6822
1	1585	6823
1	1620	6824
1	1670	6825
1	1726	6826
1	1787	6827
1	1849	6828
1	1894	6829
1	1919	6830
1	1935	6831
1	1938	6832
1	1923	6833
1	1895	6834
1	1854	6835
1	1793	6836
1	1740	6837
1	1693	6838
1	1660	6839
1	1634	6840
1	1610	6841
1	1598	6842
1	1604	6843
1	1626	6844
1	1654	6845
1	1695	6846
1	1738	6847
1	1788	6848
1	1821	6849
1	1835	6850
1	1832	6851
1	1813	6852
1	1772	6853
1	1729	6854
1	1698	6855
1	1669	6856
1	1635	6857
1	1610	6858
1	1603	6859
1	1600	6860
1	1598	6861
1	1607	6862
1	1624	6863
1	1649	6864
1	1684	6865
1	1716	6866
1	1754	6867
1	1791	6868
1	1823	6869
1	1843	6870
1	1848	6871
1	1840	6872
1	1825	6873
1	1794	6874
1	1773	6875
1	1746	6876
1	1712	6877
1	1677	6878
1	1647	6879
1	1626	6880
1	1622	6881
1	1641	6882
1	1676	6883
1	1721	6884
1	1770	6885
1	1829	6886
1	1876	6887
1	1921	6888
1	1942	6889
1	1942	6890
1	1935	6891
1	1916	6892
1	1880	6893
1	1835	6894
1	1789	6895
1	1743	6896
1	1703	6897
1	1665	6898
1	1626	6899
1	1598	6900
1	1581	6901
1	1584	6902
1	1607	6903
1	1639	6904
1	1686	6905
1	1738	6906
1	1789	6907
1	1832	6908
1	1860	6909
1	1869	6910
1	1872	6911
1	1863	6912
1	1838	6913
1	1791	6914
1	1744	6915
1	1710	6916
1	1677	6917
1	1644	6918
1	1625	6919
1	1607	6920
1	1607	6921
1	1612	6922
1	1632	6923
1	1658	6924
1	1687	6925
1	1717	6926
1	1749	6927
1	1782	6928
1	1798	6929
1	1812	6930
1	1813	6931
1	1802	6932
1	1791	6933
1	1755	6934
1	1713	6935
1	1667	6936
1	1620	6937
1	1582	6938
1	1547	6939
1	1525	6940
1	1513	6941
1	1517	6942
1	1539	6943
1	1570	6944
1	1618	6945
1	1674	6946
1	1728	6947
1	1769	6948
1	1798	6949
1	1824	6950
1	1839	6951
1	1840	6952
1	1832	6953
1	1803	6954
1	1762	6955
1	1707	6956
1	1650	6957
1	1603	6958
1	1557	6959
1	1536	6960
1	1530	6961
1	1548	6962
1	1580	6963
1	1620	6964
1	1661	6965
1	1712	6966
1	1764	6967
1	1818	6968
1	1857	6969
1	1881	6970
1	1895	6971
1	1899	6972
1	1886	6973
1	1850	6974
1	1800	6975
1	1742	6976
1	1685	6977
1	1634	6978
1	1585	6979
1	1555	6980
1	1547	6981
1	1559	6982
1	1587	6983
1	1625	6984
1	1668	6985
1	1714	6986
1	1764	6987
1	1818	6988
1	1857	6989
1	1881	6990
1	1892	6991
1	1875	6992
1	1856	6993
1	1817	6994
1	1768	6995
1	1724	6996
1	1679	6997
1	1629	6998
1	1581	6999
1	1555	7000
1	1541	7001
1	1541	7002
1	1556	7003
1	1579	7004
1	1606	7005
1	1629	7006
1	1647	7007
1	1671	7008
1	1686	7009
1	1698	7010
1	1700	7011
1	1696	7012
1	1686	7013
1	1662	7014
1	1645	7015
1	1623	7016
1	1595	7017
1	1571	7018
1	1544	7019
1	1530	7020
1	1520	7021
1	1519	7022
1	1537	7023
1	1562	7024
1	1596	7025
1	1639	7026
1	1687	7027
1	1724	7028
1	1747	7029
1	1760	7030
1	1762	7031
1	1752	7032
1	1739	7033
1	1712	7034
1	1682	7035
1	1647	7036
1	1612	7037
1	1583	7038
1	1571	7039
1	1585	7060
1	1603	7061
1	1629	7062
1	1660	7063
1	1686	7064
1	1718	7065
1	1749	7066
1	1767	7067
1	1780	7068
1	1791	7069
1	1785	7070
1	1773	7071
1	1760	7072
1	1741	7073
1	1724	7074
1	1695	7075
1	1661	7076
1	1625	7077
1	1590	7078
1	1555	7079
1	1557	7040
1	1558	7041
1	1567	7042
1	1595	7043
1	1631	7044
1	1661	7045
1	1692	7046
1	1723	7047
1	1754	7048
1	1777	7049
1	1789	7050
1	1778	7051
1	1755	7052
1	1725	7053
1	1686	7054
1	1650	7055
1	1626	7056
1	1606	7057
1	1590	7058
1	1582	7059
1	1533	7080
1	1535	7081
1	1553	7082
1	1587	7083
1	1629	7084
1	1675	7085
1	1718	7086
1	1753	7087
1	1770	7088
1	1782	7089
1	1787	7090
1	1787	7091
1	1778	7092
1	1759	7093
1	1722	7094
1	1684	7095
1	1650	7096
1	1610	7097
1	1582	7098
1	1561	7099
1	1554	7100
1	1555	7101
1	1570	7102
1	1593	7103
1	1623	7104
1	1659	7105
1	1700	7106
1	1736	7107
1	1752	7108
1	1751	7109
1	1738	7110
1	1717	7111
1	1693	7112
1	1664	7113
1	1644	7114
1	1621	7115
1	1606	7116
1	1589	7117
1	1564	7118
1	1540	7119
1	1521	7120
1	1514	7121
1	1521	7122
1	1536	7123
1	1561	7124
1	1602	7125
1	1647	7126
1	1691	7127
1	1738	7128
1	1764	7129
1	1782	7130
1	1788	7131
1	1778	7132
1	1760	7133
1	1734	7134
1	1692	7135
1	1634	7136
1	1569	7137
1	1517	7138
1	1490	7139
1	1490	7140
1	1507	7141
1	1546	7142
1	1596	7143
1	1654	7144
1	1710	7145
1	1760	7146
1	1811	7147
1	1842	7148
1	1863	7149
1	1883	7150
1	1895	7151
1	1893	7152
1	1871	7153
1	1841	7154
1	1790	7155
1	1739	7156
1	1697	7157
1	1656	7158
1	1633	7159
1	1618	7160
1	1610	7161
1	1622	7162
1	1646	7163
1	1682	7164
1	1724	7165
1	1768	7166
1	1817	7167
1	1851	7168
1	1869	7169
1	1877	7170
1	1867	7171
1	1839	7172
1	1814	7173
1	1765	7174
1	1717	7175
1	1664	7176
1	1613	7177
1	1564	7178
1	1529	7179
1	1515	7180
1	1512	7181
1	1526	7182
1	1542	7183
1	1560	7184
1	1587	7185
1	1621	7186
1	1660	7187
1	1704	7188
1	1737	7189
1	1751	7190
1	1754	7191
1	1742	7192
1	1724	7193
1	1695	7194
1	1660	7195
1	1608	7196
1	1556	7197
1	1505	7198
1	1466	7199
1	1443	7200
1	1436	7201
1	1450	7202
1	1484	7203
1	1529	7204
1	1581	7205
1	1638	7206
1	1697	7207
1	1742	7208
1	1769	7209
1	1778	7210
1	1769	7211
1	1752	7212
1	1728	7213
1	1691	7214
1	1660	7215
1	1616	7216
1	1568	7217
1	1526	7218
1	1503	7219
1	1494	7220
1	1496	7221
1	1511	7222
1	1537	7223
1	1574	7224
1	1607	7225
1	1643	7226
1	1682	7227
1	1715	7228
1	1737	7229
1	1750	7230
1	1747	7231
1	1728	7232
1	1699	7233
1	1659	7234
1	1626	7235
1	1596	7236
1	1566	7237
1	1537	7238
1	1524	7239
1	1528	7240
1	1540	7241
1	1563	7242
1	1594	7243
1	1628	7244
1	1662	7245
1	1695	7246
1	1715	7247
1	1733	7248
1	1731	7249
1	1718	7250
1	1699	7251
1	1680	7252
1	1649	7253
1	1616	7254
1	1581	7255
1	1552	7256
1	1523	7257
1	1502	7258
1	1490	7259
1	1502	7260
1	1526	7261
1	1555	7262
1	1598	7263
1	1651	7264
1	1710	7265
1	1777	7266
1	1857	7267
1	1937	7268
1	2012	7269
1	2075	7270
1	2122	7271
1	2148	7272
1	2154	7273
1	2135	7274
1	2114	7275
1	2080	7276
1	2044	7277
1	2005	7278
1	1953	7279
1	1477	7300
1	1481	7301
1	1490	7302
1	1507	7303
1	1529	7304
1	1566	7305
1	1617	7306
1	1668	7307
1	1713	7308
1	1738	7309
1	1751	7310
1	1755	7311
1	1751	7312
1	1724	7313
1	1681	7314
1	1632	7315
1	1587	7316
1	1554	7317
1	1532	7318
1	1514	7319
1	1906	7280
1	1869	7281
1	1850	7282
1	1845	7283
1	1846	7284
1	1853	7285
1	1861	7286
1	1869	7287
1	1870	7288
1	1857	7289
1	1833	7290
1	1790	7291
1	1739	7292
1	1699	7293
1	1650	7294
1	1605	7295
1	1564	7296
1	1528	7297
1	1502	7298
1	1486	7299
1	1503	7320
1	1499	7321
1	1507	7322
1	1533	7323
1	1562	7324
1	1593	7325
1	1621	7326
1	1649	7327
1	1673	7328
1	1688	7329
1	1697	7330
1	1699	7331
1	1695	7332
1	1685	7333
1	1657	7334
1	1634	7335
1	1605	7336
1	1555	7337
1	1498	7338
1	1449	7339
1	1400	7340
1	1364	7341
1	1364	7342
1	1390	7343
1	1418	7344
1	1456	7345
1	1508	7346
1	1559	7347
1	1608	7348
1	1651	7349
1	1675	7350
1	1690	7351
1	1686	7352
1	1660	7353
1	1616	7354
1	1571	7355
1	1530	7356
1	1498	7357
1	1474	7358
1	1455	7359
1	1453	7360
1	1471	7361
1	1492	7362
1	1518	7363
1	1540	7364
1	1566	7365
1	1598	7366
1	1634	7367
1	1670	7368
1	1709	7369
1	1728	7370
1	1737	7371
1	1734	7372
1	1719	7373
1	1700	7374
1	1681	7375
1	1657	7376
1	1625	7377
1	1593	7378
1	1562	7379
1	1544	7380
1	1538	7381
1	1545	7382
1	1561	7383
1	1584	7384
1	1610	7385
1	1639	7386
1	1664	7387
1	1691	7388
1	1712	7389
1	1724	7390
1	1716	7391
1	1697	7392
1	1658	7393
1	1620	7394
1	1589	7395
1	1561	7396
1	1535	7397
1	1518	7398
1	1500	7399
1	1490	7400
1	1501	7401
1	1527	7402
1	1564	7403
1	1607	7404
1	1648	7405
1	1697	7406
1	1738	7407
1	1777	7408
1	1791	7409
1	1791	7410
1	1779	7411
1	1757	7412
1	1733	7413
1	1692	7414
1	1647	7415
1	1602	7416
1	1559	7417
1	1523	7418
1	1494	7419
1	1476	7420
1	1476	7421
1	1489	7422
1	1514	7423
1	1543	7424
1	1581	7425
1	1629	7426
1	1674	7427
1	1718	7428
1	1759	7429
1	1778	7430
1	1787	7431
1	1777	7432
1	1760	7433
1	1724	7434
1	1684	7435
1	1626	7436
1	1566	7437
1	1507	7438
1	1467	7439
1	1439	7440
1	1427	7441
1	1425	7442
1	1446	7443
1	1474	7444
1	1512	7445
1	1555	7446
1	1605	7447
1	1652	7448
1	1699	7449
1	1733	7450
1	1752	7451
1	1757	7452
1	1749	7453
1	1724	7454
1	1697	7455
1	1664	7456
1	1634	7457
1	1602	7458
1	1583	7459
1	1576	7460
1	1578	7461
1	1593	7462
1	1619	7463
1	1647	7464
1	1675	7465
1	1701	7466
1	1730	7467
1	1752	7468
1	1761	7469
1	1766	7470
1	1766	7471
1	1761	7472
1	1753	7473
1	1737	7474
1	1716	7475
1	1695	7476
1	1672	7477
1	1649	7478
1	1634	7479
1	1621	7480
1	1616	7481
1	1623	7482
1	1634	7483
1	1644	7484
1	1661	7485
1	1686	7486
1	1712	7487
1	1738	7488
1	1756	7489
1	1767	7490
1	1778	7491
1	1774	7492
1	1757	7493
1	1729	7494
1	1698	7495
1	1662	7496
1	1629	7497
1	1594	7498
1	1564	7499
1	1555	7500
1	1564	7501
1	1580	7502
1	1608	7503
1	1641	7504
1	1679	7505
1	1724	7506
1	1776	7507
1	1832	7508
1	1879	7509
1	1914	7510
1	1934	7511
1	1935	7512
1	1922	7513
1	1890	7514
1	1859	7515
1	1824	7516
1	1780	7517
1	1740	7518
1	1714	7519
1	1698	7520
1	1697	7521
1	1710	7522
1	1738	7523
1	1775	7524
1	1818	7525
1	1857	7526
1	1894	7527
1	1921	7528
1	1929	7529
1	1934	7530
1	1935	7531
1	1922	7532
1	1908	7533
1	1875	7534
1	1838	7535
1	1783	7536
1	1733	7537
1	1686	7538
1	1634	7539
1	1620	7540
1	1615	7541
1	1624	7542
1	1647	7543
1	1687	7544
1	1740	7545
1	1796	7546
1	1850	7547
1	1895	7548
1	1922	7549
1	1937	7550
1	1926	7551
1	1907	7552
1	1869	7553
1	1825	7554
1	1769	7555
1	1722	7556
1	1674	7557
1	1615	7558
1	1555	7559
1	1515	7560
1	1489	7561
1	1478	7562
1	1490	7563
1	1521	7564
1	1556	7565
1	1606	7566
1	1659	7567
1	1712	7568
1	1751	7569
1	1769	7570
1	1769	7571
1	1764	7572
1	1755	7573
1	1738	7574
1	1715	7575
1	1684	7576
1	1644	7577
1	1611	7578
1	1580	7579
1	1548	7580
1	1517	7581
1	1502	7582
1	1503	7583
1	1529	7584
1	1566	7585
1	1613	7586
1	1663	7587
1	1707	7588
1	1730	7589
1	1739	7590
1	1743	7591
1	1733	7592
1	1714	7593
1	1690	7594
1	1660	7595
1	1618	7596
1	1577	7597
1	1535	7598
1	1508	7599
1	1491	7600
1	1487	7601
1	1498	7602
1	1521	7603
1	1554	7604
1	1598	7605
1	1647	7606
1	1691	7607
1	1728	7608
1	1746	7609
1	1751	7610
1	1744	7611
1	1731	7612
1	1704	7613
1	1682	7614
1	1647	7615
1	1602	7616
1	1557	7617
1	1521	7618
1	1487	7619
1	1463	7620
1	1453	7621
1	1458	7622
1	1485	7623
1	1527	7624
1	1566	7625
1	1607	7626
1	1639	7627
1	1660	7628
1	1671	7629
1	1677	7630
1	1679	7631
1	1669	7632
1	1652	7633
1	1625	7634
1	1597	7635
1	1569	7636
1	1540	7637
1	1512	7638
1	1499	7639
1	1489	7640
1	1484	7641
1	1484	7642
1	1490	7643
1	1503	7644
1	1529	7645
1	1559	7646
1	1589	7647
1	1610	7648
1	1623	7649
1	1634	7650
1	1634	7651
1	1630	7652
1	1621	7653
1	1598	7654
1	1567	7655
1	1529	7656
1	1488	7657
1	1450	7658
1	1416	7659
1	1393	7660
1	1377	7661
1	1382	7662
1	1406	7663
1	1431	7664
1	1463	7665
1	1501	7666
1	1543	7667
1	1589	7668
1	1625	7669
1	1646	7670
1	1661	7671
1	1660	7672
1	1646	7673
1	1629	7674
1	1604	7675
1	1573	7676
1	1541	7677
1	1512	7678
1	1480	7679
1	1454	7680
1	1447	7681
1	1451	7682
1	1475	7683
1	1503	7684
1	1537	7685
1	1581	7686
1	1628	7687
1	1671	7688
1	1707	7689
1	1730	7690
1	1738	7691
1	1729	7692
1	1710	7693
1	1687	7694
1	1660	7695
1	1620	7696
1	1580	7697
1	1543	7698
1	1508	7699
1	1490	7700
1	1489	7701
1	1498	7702
1	1517	7703
1	1544	7704
1	1579	7705
1	1616	7706
1	1659	7707
1	1695	7708
1	1717	7709
1	1737	7710
1	1737	7711
1	1717	7712
1	1686	7713
1	1657	7714
1	1618	7715
1	1581	7716
1	1547	7717
1	1520	7718
1	1499	7719
1	1417	7740
1	1422	7741
1	1449	7742
1	1498	7743
1	1554	7744
1	1602	7745
1	1647	7746
1	1693	7747
1	1724	7748
1	1739	7749
1	1738	7750
1	1712	7751
1	1670	7752
1	1620	7753
1	1567	7754
1	1523	7755
1	1476	7756
1	1431	7757
1	1397	7758
1	1374	7759
1	1488	7720
1	1489	7721
1	1503	7722
1	1524	7723
1	1544	7724
1	1577	7725
1	1607	7726
1	1636	7727
1	1672	7728
1	1694	7729
1	1706	7730
1	1698	7731
1	1673	7732
1	1642	7733
1	1605	7734
1	1567	7735
1	1522	7736
1	1481	7737
1	1443	7738
1	1423	7739
1	1376	7760
1	1392	7761
1	1413	7762
1	1445	7763
1	1498	7764
1	1557	7765
1	1622	7766
1	1682	7767
1	1729	7768
1	1759	7769
1	1777	7770
1	1776	7771
1	1759	7772
1	1726	7773
1	1686	7774
1	1643	7775
1	1607	7776
1	1576	7777
1	1553	7778
1	1539	7779
1	1533	7780
1	1535	7781
1	1546	7782
1	1570	7783
1	1593	7784
1	1622	7785
1	1647	7786
1	1674	7787
1	1698	7788
1	1710	7789
1	1708	7790
1	1696	7791
1	1672	7792
1	1644	7793
1	1600	7794
1	1556	7795
1	1508	7796
1	1469	7797
1	1439	7798
1	1425	7799
1	1424	7800
1	1429	7801
1	1446	7802
1	1482	7803
1	1529	7804
1	1586	7805
1	1647	7806
1	1695	7807
1	1724	7808
1	1747	7809
1	1760	7810
1	1762	7811
1	1746	7812
1	1724	7813
1	1684	7814
1	1636	7815
1	1583	7816
1	1530	7817
1	1476	7818
1	1442	7819
1	1413	7820
1	1409	7821
1	1423	7822
1	1452	7823
1	1494	7824
1	1546	7825
1	1595	7826
1	1641	7827
1	1677	7828
1	1688	7829
1	1692	7830
1	1682	7831
1	1654	7832
1	1621	7833
1	1570	7834
1	1523	7835
1	1477	7836
1	1448	7837
1	1432	7838
1	1424	7839
1	1424	7840
1	1438	7841
1	1469	7842
1	1510	7843
1	1562	7844
1	1613	7845
1	1660	7846
1	1699	7847
1	1738	7848
1	1770	7849
1	1779	7850
1	1773	7851
1	1761	7852
1	1733	7853
1	1698	7854
1	1659	7855
1	1611	7856
1	1571	7857
1	1531	7858
1	1503	7859
1	1486	7860
1	1480	7861
1	1490	7862
1	1516	7863
1	1556	7864
1	1599	7865
1	1637	7866
1	1679	7867
1	1711	7868
1	1737	7869
1	1754	7870
1	1764	7871
1	1757	7872
1	1738	7873
1	1705	7874
1	1660	7875
1	1606	7876
1	1547	7877
1	1495	7878
1	1453	7879
1	1437	7880
1	1437	7881
1	1450	7882
1	1476	7883
1	1503	7884
1	1528	7885
1	1555	7886
1	1584	7887
1	1607	7888
1	1621	7889
1	1633	7890
1	1634	7891
1	1629	7892
1	1617	7893
1	1586	7894
1	1548	7895
1	1503	7896
1	1464	7897
1	1435	7898
1	1420	7899
1	1416	7900
1	1424	7901
1	1445	7902
1	1475	7903
1	1503	7904
1	1539	7905
1	1580	7906
1	1619	7907
1	1665	7908
1	1690	7909
1	1701	7910
1	1698	7911
1	1681	7912
1	1655	7913
1	1625	7914
1	1590	7915
1	1558	7916
1	1536	7917
1	1520	7918
1	1507	7919
1	1506	7940
1	1514	7941
1	1537	7942
1	1571	7943
1	1611	7944
1	1647	7945
1	1682	7946
1	1711	7947
1	1731	7948
1	1746	7949
1	1755	7950
1	1751	7951
1	1733	7952
1	1698	7953
1	1649	7954
1	1595	7955
1	1542	7956
1	1495	7957
1	1458	7958
1	1440	7959
1	1432	7940
1	1439	7941
1	1462	7942
1	1498	7943
1	1540	7944
1	1581	7945
1	1631	7946
1	1673	7947
1	1710	7948
1	1724	7949
1	1736	7950
1	1730	7951
1	1715	7952
1	1697	7953
1	1671	7954
1	1638	7955
1	1607	7956
1	1572	7957
1	1542	7958
1	1524	7959
1	1508	7960
1	1503	7961
1	1517	7962
1	1538	7963
1	1565	7964
1	1602	7965
1	1643	7966
1	1674	7967
1	1700	7968
1	1724	7969
1	1731	7970
1	1726	7971
1	1712	7972
1	1692	7973
1	1671	7974
1	1646	7975
1	1615	7976
1	1574	7977
1	1528	7978
1	1471	7979
1	1424	7980
1	1384	7981
1	1364	7982
1	1359	7983
1	1372	7984
1	1403	7985
1	1450	7986
1	1505	7987
1	1557	7988
1	1607	7989
1	1647	7990
1	1679	7991
1	1690	7992
1	1683	7993
1	1657	7994
1	1626	7995
1	1594	7996
1	1556	7997
1	1533	7998
1	1516	7999
1	1510	8000
1	1517	8000
1	1535	8002
1	1557	8003
1	1586	8004
1	1625	8005
1	1660	8006
1	1689	8007
1	1711	8008
1	1712	8009
1	1710	8010
1	1701	8011
1	1686	8012
1	1657	8013
1	1625	8013
1	1581	8015
1	1541	8016
1	1502	8016
1	1467	8018
1	1445	8019
1	1438	8020
1	1448	8021
1	1472	8022
1	1515	8023
1	1561	8024
1	1608	8025
1	1651	8026
1	1692	8027
1	1733	8028
1	1757	8029
1	1771	8029
1	1768	8031
1	1751	8032
1	1710	8032
1	1656	8034
1	1606	8035
1	1555	8036
1	1517	8037
1	1490	8038
1	1476	8039
1	1476	8040
1	1487	8041
1	1507	8042
1	1530	8043
1	1561	8044
1	1592	8045
1	1630	8045
1	1669	8047
1	1698	8048
1	1715	8048
1	1718	8050
1	1711	8051
1	1686	8052
1	1659	8053
1	1629	8054
1	1599	8055
1	1577	8056
1	1555	8057
1	1542	8058
1	1547	8059
1	1559	8060
1	1575	8061
1	1592	8061
1	1613	8063
1	1641	8064
1	1669	8064
1	1687	8066
1	1703	8067
1	1713	8068
1	1713	8069
1	1712	8070
1	1706	8071
1	1699	8072
1	1693	8073
1	1681	8074
1	1663	8074
1	1643	8076
1	1620	8077
1	1598	8077
1	1586	8079
1	1445	8100
1	1445	8101
1	1462	8102
1	1490	8103
1	1521	8104
1	1556	8105
1	1592	8106
1	1628	8106
1	1660	8108
1	1690	8109
1	1712	8109
1	1721	8111
1	1715	8112
1	1695	8113
1	1660	8114
1	1632	8115
1	1596	8116
1	1555	8117
1	1521	8118
1	1485	8119
1	1578	8080
1	1567	8080
1	1563	8082
1	1570	8083
1	1580	8084
1	1596	8085
1	1619	8086
1	1642	8087
1	1668	8088
1	1686	8089
1	1697	8090
1	1693	8090
1	1677	8092
1	1647	8093
1	1611	8093
1	1576	8095
1	1543	8096
1	1508	8096
1	1481	8098
1	1451	8099
1	1451	8120
1	1441	8121
1	1453	8122
1	1485	8122
1	1526	8124
1	1567	8125
1	1607	8125
1	1644	8127
1	1674	8128
1	1685	8129
1	1686	8130
1	1686	8131
1	1677	8132
1	1661	8133
1	1633	8134
1	1594	8135
1	1546	8136
1	1503	8137
1	1459	8138
1	1426	8138
1	1406	8140
1	1403	8141
1	1422	8141
1	1453	8143
1	1500	8144
1	1555	8145
1	1621	8146
1	1683	8147
1	1727	8148
1	1760	8149
1	1772	8150
1	1782	8151
1	1773	8152
1	1753	8153
1	1714	8154
1	1665	8154
1	1615	8156
1	1570	8157
1	1538	8157
1	1521	8159
1	1530	8160
1	1558	8161
1	1598	8162
1	1636	8163
1	1678	8164
1	1710	8165
1	1741	8166
1	1767	8167
1	1791	8168
1	1803	8169
1	1817	8170
1	1815	8170
1	1790	8172
1	1756	8173
1	1710	8173
1	1659	8175
1	1608	8176
1	1569	8177
1	1542	8178
1	1517	8179
1	1501	8180
1	1493	8181
1	1503	8182
1	1525	8183
1	1555	8184
1	1590	8185
1	1621	8186
1	1660	8186
1	1699	8188
1	1721	8189
1	1734	8189
1	1727	8191
1	1701	8192
1	1674	8193
1	1634	8194
1	1592	8195
1	1554	8196
1	1518	8197
1	1491	8198
1	1476	8199
1	1471	8200
1	1476	8201
1	1490	8202
1	1516	8203
1	1547	8204
1	1585	8205
1	1633	8206
1	1669	8207
1	1698	8208
1	1707	8209
1	1705	8210
1	1700	8211
1	1688	8212
1	1665	8213
1	1638	8214
1	1605	8215
1	1559	8216
1	1512	8217
1	1468	8218
1	1438	8219
1	1531	8240
1	1528	8241
1	1542	8242
1	1561	8243
1	1594	8244
1	1638	8245
1	1685	8246
1	1726	8247
1	1754	8248
1	1765	8249
1	1779	8250
1	1790	8251
1	1783	8252
1	1764	8253
1	1737	8254
1	1690	8255
1	1646	8256
1	1605	8257
1	1559	8258
1	1529	8259
1	1515	8260
1	1517	8261
1	1535	8262
1	1561	8263
1	1589	8264
1	1618	8265
1	1655	8266
1	1692	8267
1	1721	8268
1	1742	8269
1	1736	8270
1	1713	8271
1	1687	8272
1	1655	8273
1	1616	8274
1	1569	8275
1	1520	8276
1	1476	8277
1	1451	8278
1	1448	8279
1	1459	8280
1	1487	8281
1	1521	8282
1	1566	8283
1	1610	8284
1	1660	8285
1	1705	8286
1	1738	8287
1	1762	8288
1	1772	8289
1	1777	8290
1	1775	8291
1	1769	8292
1	1754	8293
1	1724	8294
1	1686	8295
1	1638	8296
1	1592	8297
1	1555	8298
1	1527	8299
1	1509	8300
1	1507	8301
1	1526	8302
1	1551	8303
1	1582	8304
1	1620	8305
1	1656	8306
1	1697	8307
1	1736	8308
1	1757	8309
1	1764	8310
1	1754	8311
1	1737	8312
1	1714	8313
1	1687	8314
1	1659	8315
1	1629	8316
1	1593	8317
1	1566	8318
1	1548	8319
1	1438	8220
1	1458	8221
1	1494	8222
1	1542	8223
1	1586	8224
1	1625	8225
1	1661	8226
1	1696	8227
1	1714	8228
1	1723	8229
1	1720	8230
1	1717	8231
1	1711	8232
1	1698	8233
1	1673	8234
1	1644	8235
1	1613	8236
1	1581	8237
1	1554	8238
1	1540	8239
1	1577	8340
1	1581	8341
1	1598	8342
1	1622	8343
1	1647	8344
1	1673	8345
1	1714	8346
1	1743	8347
1	1770	8348
1	1781	8349
1	1779	8350
1	1766	8351
1	1743	8352
1	1712	8353
1	1667	8354
1	1626	8355
1	1581	8356
1	1546	8357
1	1521	8358
1	1512	8359
1	1548	8320
1	1562	8321
1	1594	8322
1	1634	8323
1	1671	8324
1	1710	8325
1	1749	8326
1	1785	8327
1	1827	8328
1	1848	8329
1	1852	8330
1	1843	8331
1	1819	8332
1	1787	8333
1	1738	8334
1	1688	8335
1	1647	8336
1	1620	8337
1	1595	8338
1	1581	8339
1	1508	8360
1	1519	8361
1	1539	8362
1	1571	8363
1	1611	8364
1	1652	8365
1	1688	8366
1	1720	8367
1	1742	8368
1	1753	8369
1	1762	8370
1	1760	8371
1	1742	8372
1	1716	8373
1	1682	8374
1	1634	8375
1	1590	8376
1	1547	8377
1	1513	8378
1	1494	8379
1	1485	8380
1	1498	8381
1	1530	8382
1	1579	8383
1	1625	8384
1	1674	8385
1	1721	8386
1	1764	8387
1	1806	8388
1	1827	8389
1	1830	8390
1	1819	8391
1	1791	8392
1	1751	8393
1	1697	8394
1	1639	8395
1	1592	8396
1	1544	8397
1	1500	8398
1	1467	8399
1	1454	8400
1	1459	8401
1	1477	8402
1	1510	8403
1	1544	8404
1	1581	8405
1	1620	8406
1	1661	8407
1	1699	8408
1	1731	8409
1	1746	8410
1	1753	8411
1	1754	8412
1	1747	8413
1	1723	8414
1	1694	8415
1	1657	8416
1	1605	8417
1	1554	8418
1	1508	8419
1	1488	8420
1	1490	8421
1	1507	8422
1	1539	8423
1	1581	8424
1	1634	8425
1	1692	8426
1	1752	8427
1	1813	8428
1	1843	8429
1	1865	8430
1	1878	8431
1	1886	8432
1	1897	8433
1	1905	8434
1	1909	8435
1	1935	8436
1	1952	8437
1	1953	8438
1	1953	8439
1	1952	8440
1	1955	8441
1	1967	8442
1	1989	8443
1	2024	8444
1	2054	8445
1	2081	8446
1	2105	8447
1	2106	8448
1	2101	8449
1	2070	8450
1	2042	8451
1	1999	8452
1	1948	8453
1	1877	8454
1	1791	8455
1	1712	8456
1	1643	8457
1	1576	8458
1	1512	8459
1	1472	8460
1	1449	8461
1	1450	8462
1	1464	8463
1	1499	8464
1	1538	8465
1	1581	8466
1	1626	8467
1	1675	8468
1	1712	8469
1	1731	8470
1	1731	8471
1	1715	8472
1	1688	8473
1	1646	8474
1	1603	8475
1	1555	8476
1	1508	8477
1	1476	8478
1	1453	8479
1	1449	8480
1	1451	8481
1	1466	8482
1	1485	8483
1	1513	8484
1	1555	8485
1	1607	8486
1	1661	8487
1	1711	8488
1	1738	8489
1	1751	8490
1	1754	8491
1	1741	8492
1	1719	8493
1	1678	8494
1	1624	8495
1	1567	8496
1	1511	8497
1	1459	8498
1	1427	8499
1	1412	8500
1	1412	8501
1	1431	8502
1	1469	8503
1	1517	8504
1	1571	8505
1	1632	8506
1	1686	8507
1	1744	8508
1	1778	8509
1	1787	8510
1	1775	8511
1	1748	8512
1	1710	8513
1	1660	8514
1	1610	8515
1	1569	8516
1	1540	8517
1	1515	8518
1	1495	8519
1	1490	8520
1	1496	8521
1	1511	8522
1	1544	8523
1	1580	8524
1	1612	8525
1	1649	8526
1	1683	8527
1	1710	8528
1	1723	8529
1	1726	8530
1	1724	8531
1	1715	8532
1	1696	8533
1	1660	8534
1	1625	8535
1	1590	8536
1	1555	8537
1	1528	8538
1	1511	8539
1	1503	8540
1	1508	8541
1	1528	8542
1	1554	8543
1	1582	8544
1	1616	8545
1	1652	8546
1	1687	8547
1	1712	8548
1	1724	8549
1	1734	8550
1	1730	8551
1	1715	8552
1	1694	8553
1	1674	8554
1	1641	8555
1	1608	8556
1	1581	8557
1	1553	8558
1	1530	8559
1	1481	8580
1	1481	8581
1	1499	8582
1	1532	8583
1	1566	8584
1	1602	8585
1	1641	8586
1	1683	8587
1	1716	8588
1	1740	8589
1	1754	8590
1	1754	8591
1	1749	8592
1	1734	8593
1	1699	8594
1	1661	8595
1	1630	8596
1	1597	8597
1	1580	8598
1	1561	8599
1	1518	8560
1	1513	8561
1	1519	8562
1	1541	8563
1	1566	8564
1	1607	8565
1	1656	8566
1	1707	8567
1	1747	8568
1	1773	8569
1	1778	8570
1	1766	8571
1	1743	8572
1	1710	8573
1	1668	8574
1	1623	8575
1	1584	8576
1	1548	8577
1	1521	8578
1	1496	8579
1	1548	8600
1	1555	8601
1	1580	8602
1	1608	8603
1	1641	8604
1	1677	8605
1	1714	8606
1	1747	8607
1	1770	8608
1	1778	8609
1	1777	8610
1	1764	8611
1	1744	8612
1	1721	8613
1	1684	8614
1	1637	8615
1	1593	8616
1	1554	8617
1	1518	8618
1	1499	8619
1	1503	8640
1	1529	8641
1	1571	8642
1	1618	8643
1	1660	8644
1	1707	8645
1	1748	8646
1	1783	8647
1	1817	8648
1	1823	8649
1	1817	8650
1	1795	8651
1	1775	8652
1	1755	8653
1	1733	8654
1	1698	8655
1	1665	8656
1	1634	8657
1	1607	8658
1	1581	8659
1	1566	8640
1	1560	8641
1	1566	8642
1	1581	8643
1	1610	8644
1	1647	8645
1	1700	8646
1	1741	8647
1	1785	8648
1	1813	8649
1	1833	8650
1	1843	8651
1	1837	8652
1	1821	8653
1	1791	8654
1	1766	8655
1	1740	8656
1	1712	8657
1	1682	8658
1	1661	8659
1	1648	8660
1	1647	8661
1	1661	8662
1	1690	8663
1	1723	8664
1	1750	8665
1	1777	8666
1	1811	8667
1	1840	8668
1	1852	8669
1	1857	8670
1	1855	8671
1	1836	8672
1	1823	8673
1	1811	8674
1	1785	8675
1	1751	8676
1	1712	8677
1	1660	8678
1	1609	8679
1	1647	8700
1	1629	8701
1	1620	8702
1	1642	8703
1	1674	8704
1	1721	8705
1	1770	8706
1	1830	8707
1	1873	8708
1	1907	8709
1	1924	8710
1	1931	8711
1	1923	8712
1	1904	8713
1	1869	8714
1	1836	8715
1	1791	8716
1	1743	8717
1	1709	8718
1	1674	8719
1	1580	8680
1	1580	8681
1	1608	8682
1	1660	8683
1	1715	8684
1	1776	8685
1	1843	8686
1	1903	8687
1	1958	8688
1	1991	8689
1	2006	8690
1	2003	8691
1	1986	8692
1	1963	8693
1	1924	8694
1	1880	8695
1	1832	8696
1	1780	8697
1	1737	8698
1	1687	8699
1	1652	8720
1	1649	8721
1	1660	8722
1	1683	8723
1	1712	8724
1	1755	8725
1	1808	8726
1	1850	8727
1	1882	8728
1	1897	8729
1	1908	8730
1	1899	8731
1	1877	8732
1	1852	8733
1	1812	8734
1	1757	8735
1	1712	8736
1	1657	8737
1	1605	8738
1	1568	8739
1	1539	8740
1	1529	8741
1	1539	8742
1	1559	8743
1	1594	8744
1	1636	8745
1	1681	8746
1	1716	8747
1	1742	8748
1	1757	8749
1	1753	8750
1	1755	8751
1	1736	8752
1	1708	8753
1	1659	8754
1	1599	8755
1	1536	8756
1	1484	8757
1	1443	8758
1	1413	8759
1	1402	8760
1	1416	8761
1	1451	8762
1	1500	8763
1	1555	8764
1	1607	8765
1	1661	8766
1	1710	8767
1	1740	8768
1	1760	8769
1	1759	8770
1	1743	8771
1	1712	8772
1	1665	8773
1	1608	8774
1	1555	8775
1	1500	8776
1	1449	8777
1	1416	8778
1	1398	8779
1	1398	8780
1	1416	8781
1	1440	8782
1	1471	8783
1	1504	8784
1	1547	8785
1	1597	8786
1	1654	8787
1	1704	8788
1	1735	8789
1	1754	8790
1	1752	8791
1	1735	8792
1	1710	8793
1	1677	8794
1	1634	8795
1	1593	8796
1	1555	8797
1	1525	8798
1	1500	8799
1	1481	8800
1	1469	8801
1	1463	8802
1	1464	8803
1	1476	8804
1	1508	8805
1	1542	8806
1	1573	8807
1	1608	8808
1	1639	8809
1	1661	8810
1	1670	8811
1	1668	8812
1	1662	8813
1	1651	8814
1	1630	8815
1	1596	8816
1	1553	8817
1	1511	8818
1	1475	8819
1	1449	8840
1	1450	8841
1	1465	8842
1	1487	8843
1	1516	8844
1	1555	8845
1	1593	8846
1	1628	8847
1	1645	8848
1	1643	8849
1	1632	8850
1	1614	8851
1	1587	8852
1	1549	8853
1	1521	8854
1	1498	8855
1	1472	8856
1	1440	8857
1	1411	8858
1	1392	8859
1	1382	8860
1	1400	8861
1	1428	8862
1	1469	8863
1	1503	8864
1	1545	8865
1	1585	8866
1	1625	8867
1	1661	8868
1	1692	8869
1	1708	8870
1	1715	8871
1	1710	8872
1	1687	8873
1	1659	8874
1	1619	8875
1	1577	8876
1	1537	8877
1	1503	8878
1	1476	8879
1	1449	8820
1	1440	8821
1	1445	8822
1	1466	8823
1	1490	8824
1	1527	8825
1	1570	8826
1	1616	8827
1	1660	8828
1	1687	8829
1	1699	8830
1	1703	8831
1	1692	8832
1	1667	8833
1	1627	8834
1	1585	8835
1	1548	8836
1	1511	8837
1	1484	8838
1	1463	8839
1	1453	8880
1	1449	8881
1	1458	8882
1	1490	8883
1	1529	8884
1	1569	8885
1	1613	8886
1	1660	8887
1	1692	8888
1	1706	8889
1	1702	8890
1	1686	8891
1	1657	8892
1	1619	8893
1	1569	8894
1	1525	8895
1	1487	8896
1	1449	8897
1	1428	8898
1	1412	8899
1	1412	8900
1	1430	8901
1	1462	8902
1	1503	8903
1	1545	8904
1	1591	8905
1	1638	8906
1	1682	8907
1	1723	8908
1	1742	8909
1	1751	8910
1	1741	8911
1	1716	8912
1	1685	8913
1	1634	8914
1	1581	8915
1	1533	8916
1	1490	8917
1	1449	8918
1	1421	8919
1	1400	8920
1	1404	8921
1	1424	8922
1	1453	8923
1	1490	8924
1	1535	8925
1	1576	8926
1	1607	8927
1	1629	8928
1	1635	8929
1	1634	8930
1	1623	8931
1	1609	8932
1	1597	8933
1	1589	8934
1	1577	8935
1	1546	8936
1	1518	8937
1	1499	8938
1	1482	8939
1	1472	8940
1	1463	8941
1	1465	8942
1	1480	8943
1	1503	8944
1	1543	8945
1	1595	8946
1	1648	8947
1	1698	8948
1	1726	8949
1	1736	8950
1	1727	8951
1	1710	8952
1	1686	8953
1	1656	8954
1	1631	8955
1	1602	8956
1	1571	8957
1	1538	8958
1	1516	8959
1	1427	9000
1	1427	9001
1	1443	9002
1	1479	9003
1	1513	9004
1	1555	9005
1	1607	9006
1	1656	9007
1	1690	9008
1	1710	9009
1	1710	9010
1	1700	9011
1	1685	9012
1	1660	9013
1	1625	9014
1	1582	9015
1	1542	9016
1	1508	9017
1	1485	9018
1	1476	9019
1	1494	8960
1	1481	8961
1	1482	8962
1	1500	8963
1	1525	8964
1	1557	8965
1	1587	8966
1	1613	8967
1	1632	8968
1	1639	8969
1	1647	8970
1	1648	8971
1	1638	8972
1	1634	8973
1	1620	8974
1	1602	8975
1	1581	8976
1	1564	8977
1	1554	8978
1	1548	8979
1	1544	8980
1	1552	8981
1	1561	8982
1	1576	8983
1	1584	8984
1	1602	8985
1	1622	8986
1	1644	8987
1	1665	8988
1	1675	8989
1	1677	8990
1	1664	8991
1	1647	8992
1	1624	8993
1	1597	8994
1	1571	8995
1	1538	8996
1	1503	8997
1	1474	8998
1	1443	8999
1	1476	9020
1	1486	9021
1	1503	9022
1	1531	9023
1	1569	9024
1	1609	9025
1	1656	9026
1	1688	9027
1	1712	9028
1	1718	9029
1	1724	9030
1	1728	9031
1	1726	9032
1	1715	9033
1	1686	9034
1	1645	9035
1	1607	9036
1	1566	9037
1	1526	9038
1	1500	9039
1	1476	9040
1	1471	9041
1	1476	9042
1	1495	9043
1	1529	9044
1	1579	9045
1	1630	9046
1	1675	9047
1	1710	9048
1	1734	9049
1	1747	9050
1	1749	9051
1	1748	9052
1	1731	9053
1	1703	9054
1	1671	9055
1	1636	9056
1	1607	9057
1	1578	9058
1	1555	9059
1	1553	9060
1	1566	9061
1	1589	9062
1	1620	9063
1	1657	9064
1	1691	9065
1	1725	9066
1	1751	9067
1	1762	9068
1	1764	9069
1	1757	9070
1	1744	9071
1	1724	9072
1	1690	9073
1	1645	9074
1	1598	9075
1	1555	9076
1	1510	9077
1	1474	9078
1	1449	9079
1	1441	9080
1	1455	9081
1	1490	9082
1	1531	9083
1	1581	9084
1	1632	9085
1	1670	9086
1	1698	9087
1	1720	9088
1	1731	9089
1	1742	9090
1	1744	9091
1	1733	9092
1	1721	9093
1	1700	9094
1	1672	9095
1	1634	9096
1	1593	9097
1	1555	9098
1	1531	9099
1	1519	9100
1	1514	9101
1	1527	9102
1	1551	9103
1	1572	9104
1	1605	9105
1	1636	9106
1	1674	9107
1	1712	9108
1	1739	9109
1	1757	9110
1	1764	9111
1	1757	9112
1	1734	9113
1	1698	9114
1	1661	9115
1	1626	9116
1	1591	9117
1	1557	9118
1	1538	9119
1	1543	9140
1	1541	9141
1	1555	9142
1	1579	9143
1	1607	9144
1	1646	9145
1	1692	9146
1	1742	9147
1	1787	9148
1	1812	9149
1	1823	9150
1	1824	9151
1	1813	9152
1	1791	9153
1	1762	9154
1	1723	9155
1	1683	9156
1	1643	9157
1	1603	9158
1	1571	9159
1	1529	9120
1	1534	9121
1	1553	9122
1	1581	9123
1	1619	9124
1	1657	9125
1	1690	9126
1	1727	9127
1	1751	9128
1	1766	9129
1	1772	9130
1	1767	9131
1	1753	9132
1	1736	9133
1	1704	9134
1	1672	9135
1	1634	9136
1	1594	9137
1	1557	9138
1	1550	9139
1	1549	9160
1	1544	9161
1	1555	9162
1	1577	9163
1	1599	9164
1	1633	9165
1	1668	9166
1	1706	9167
1	1739	9168
1	1769	9169
1	1788	9170
1	1791	9171
1	1776	9172
1	1740	9173
1	1700	9174
1	1660	9175
1	1624	9176
1	1590	9177
1	1556	9178
1	1530	9179
1	1521	9180
1	1518	9181
1	1529	9182
1	1555	9183
1	1587	9184
1	1634	9185
1	1686	9186
1	1737	9187
1	1780	9188
1	1811	9189
1	1816	9190
1	1799	9191
1	1776	9192
1	1737	9193
1	1690	9194
1	1643	9195
1	1594	9196
1	1552	9197
1	1529	9198
1	1517	9199
1	1512	9200
1	1517	9201
1	1539	9202
1	1579	9203
1	1623	9204
1	1678	9205
1	1729	9206
1	1773	9207
1	1810	9208
1	1819	9209
1	1821	9210
1	1800	9211
1	1760	9212
1	1712	9213
1	1677	9214
1	1643	9215
1	1611	9216
1	1587	9217
1	1574	9218
1	1581	9219
1	1595	9220
1	1615	9221
1	1623	9222
1	1631	9223
1	1636	9224
1	1660	9225
1	1686	9226
1	1712	9227
1	1740	9228
1	1759	9229
1	1767	9230
1	1773	9231
1	1769	9232
1	1751	9233
1	1711	9234
1	1661	9235
1	1615	9236
1	1568	9237
1	1529	9238
1	1503	9239
1	1491	9240
1	1494	9241
1	1510	9242
1	1541	9243
1	1580	9244
1	1616	9245
1	1660	9246
1	1707	9247
1	1741	9248
1	1770	9249
1	1793	9250
1	1803	9251
1	1800	9252
1	1791	9253
1	1766	9254
1	1741	9255
1	1712	9256
1	1678	9257
1	1638	9258
1	1608	9259
1	1589	9260
1	1587	9261
1	1598	9262
1	1616	9263
1	1638	9264
1	1665	9265
1	1691	9266
1	1718	9267
1	1737	9268
1	1743	9269
1	1751	9270
1	1741	9271
1	1713	9272
1	1688	9273
1	1657	9274
1	1621	9275
1	1583	9276
1	1545	9277
1	1507	9278
1	1487	9279
1	1481	9280
1	1502	9281
1	1536	9282
1	1582	9283
1	1634	9284
1	1685	9285
1	1727	9286
1	1764	9287
1	1796	9288
1	1818	9289
1	1818	9290
1	1798	9291
1	1769	9292
1	1737	9293
1	1704	9294
1	1678	9295
1	1647	9296
1	1633	9297
1	1605	9298
1	1585	9299
1	1581	9300
1	1593	9301
1	1616	9302
1	1659	9303
1	1698	9304
1	1740	9305
1	1780	9306
1	1817	9307
1	1838	9308
1	1836	9309
1	1829	9310
1	1811	9311
1	1783	9312
1	1754	9313
1	1723	9314
1	1697	9315
1	1665	9316
1	1632	9317
1	1595	9318
1	1568	9319
1	1549	9320
1	1543	9321
1	1552	9322
1	1572	9323
1	1600	9324
1	1629	9325
1	1656	9326
1	1683	9327
1	1708	9328
1	1721	9329
1	1733	9330
1	1725	9331
1	1708	9332
1	1688	9333
1	1665	9334
1	1634	9335
1	1610	9336
1	1580	9337
1	1548	9338
1	1520	9339
1	1492	9360
1	1490	9361
1	1507	9362
1	1538	9363
1	1566	9364
1	1602	9365
1	1642	9366
1	1683	9367
1	1718	9368
1	1741	9369
1	1751	9370
1	1751	9371
1	1747	9372
1	1726	9373
1	1698	9374
1	1660	9375
1	1634	9376
1	1610	9377
1	1596	9378
1	1585	9379
1	1585	9360
1	1598	9361
1	1609	9362
1	1632	9363
1	1660	9364
1	1692	9365
1	1724	9366
1	1753	9367
1	1787	9368
1	1815	9369
1	1829	9370
1	1827	9371
1	1816	9372
1	1788	9373
1	1749	9374
1	1710	9375
1	1671	9376
1	1638	9377
1	1616	9378
1	1598	9379
1	1593	9380
1	1595	9381
1	1611	9382
1	1638	9383
1	1675	9384
1	1717	9385
1	1760	9386
1	1791	9387
1	1817	9388
1	1818	9389
1	1814	9390
1	1791	9391
1	1760	9392
1	1733	9393
1	1699	9394
1	1672	9395
1	1638	9396
1	1618	9397
1	1599	9398
1	1592	9399
1	1584	9400
1	1581	9401
1	1589	9402
1	1607	9403
1	1629	9404
1	1654	9405
1	1681	9406
1	1706	9407
1	1736	9408
1	1752	9409
1	1764	9410
1	1770	9411
1	1769	9412
1	1760	9413
1	1738	9414
1	1712	9415
1	1686	9416
1	1660	9417
1	1642	9418
1	1621	9419
1	1607	9440
1	1607	9441
1	1623	9442
1	1645	9443
1	1675	9444
1	1708	9445
1	1742	9446
1	1779	9447
1	1815	9448
1	1836	9449
1	1841	9450
1	1834	9451
1	1818	9452
1	1794	9453
1	1763	9454
1	1725	9455
1	1687	9456
1	1652	9457
1	1625	9458
1	1596	9459
1	1577	9440
1	1569	9441
1	1580	9442
1	1606	9443
1	1644	9444
1	1688	9445
1	1736	9446
1	1775	9447
1	1809	9448
1	1821	9449
1	1823	9450
1	1816	9451
1	1791	9452
1	1760	9453
1	1728	9454
1	1688	9455
1	1647	9456
1	1605	9457
1	1574	9458
1	1555	9459
1	1531	9500
1	1532	9501
1	1544	9502
1	1569	9503
1	1607	9504
1	1647	9505
1	1690	9506
1	1726	9507
1	1763	9508
1	1783	9509
1	1792	9510
1	1791	9511
1	1775	9512
1	1751	9513
1	1725	9514
1	1689	9515
1	1653	9516
1	1616	9517
1	1584	9518
1	1566	9519
1	1550	9460
1	1550	9461
1	1563	9462
1	1580	9463
1	1598	9464
1	1625	9465
1	1654	9466
1	1677	9467
1	1700	9468
1	1726	9469
1	1737	9470
1	1737	9471
1	1728	9472
1	1713	9473
1	1694	9474
1	1669	9475
1	1639	9476
1	1604	9477
1	1573	9478
1	1542	9479
1	1531	9480
1	1546	9481
1	1581	9482
1	1625	9483
1	1669	9484
1	1712	9485
1	1755	9486
1	1796	9487
1	1839	9488
1	1860	9489
1	1868	9490
1	1862	9491
1	1843	9492
1	1814	9493
1	1762	9494
1	1712	9495
1	1662	9496
1	1612	9497
1	1573	9498
1	1544	9499
1	1553	9520
1	1542	9521
1	1541	9522
1	1547	9523
1	1556	9524
1	1579	9525
1	1598	9526
1	1618	9527
1	1647	9528
1	1672	9529
1	1696	9530
1	1712	9531
1	1723	9532
1	1719	9533
1	1708	9534
1	1683	9535
1	1660	9536
1	1633	9537
1	1612	9538
1	1599	9539
1	1597	9540
1	1607	9541
1	1623	9542
1	1651	9543
1	1674	9544
1	1698	9545
1	1719	9546
1	1742	9547
1	1757	9548
1	1770	9549
1	1778	9550
1	1773	9551
1	1757	9552
1	1738	9553
1	1710	9554
1	1677	9555
1	1645	9556
1	1610	9557
1	1585	9558
1	1574	9559
1	1567	9560
1	1581	9561
1	1615	9562
1	1670	9563
1	1738	9564
1	1817	9565
1	1904	9566
1	1994	9567
1	2080	9568
1	2156	9569
1	2231	9570
1	2282	9571
1	2314	9572
1	2332	9573
1	2320	9574
1	2288	9575
1	2243	9576
1	2183	9577
1	2129	9578
1	2069	9579
1	2016	9580
1	1974	9581
1	1945	9582
1	1931	9583
1	1924	9584
1	1939	9585
1	1955	9586
1	1967	9587
1	1974	9588
1	1968	9589
1	1952	9590
1	1922	9591
1	1877	9592
1	1818	9593
1	1744	9594
1	1676	9595
1	1607	9596
1	1551	9597
1	1503	9598
1	1465	9599
1	1448	9600
1	1451	9601
1	1471	9602
1	1505	9603
1	1549	9604
1	1595	9605
1	1641	9606
1	1682	9607
1	1708	9608
1	1718	9609
1	1719	9610
1	1708	9611
1	1685	9612
1	1647	9613
1	1597	9614
1	1551	9615
1	1511	9616
1	1476	9617
1	1445	9618
1	1427	9619
1	1421	9620
1	1426	9621
1	1440	9622
1	1463	9623
1	1492	9624
1	1538	9625
1	1593	9626
1	1646	9627
1	1688	9628
1	1720	9629
1	1751	9630
1	1772	9631
1	1782	9632
1	1787	9633
1	1780	9634
1	1751	9635
1	1724	9636
1	1692	9637
1	1660	9638
1	1647	9639
1	1631	9640
1	1630	9641
1	1639	9642
1	1659	9643
1	1680	9644
1	1710	9645
1	1747	9646
1	1775	9647
1	1796	9648
1	1795	9649
1	1792	9650
1	1778	9651
1	1753	9652
1	1725	9653
1	1698	9654
1	1672	9655
1	1647	9656
1	1620	9657
1	1597	9658
1	1581	9659
1	1582	9660
1	1600	9661
1	1629	9662
1	1665	9663
1	1700	9664
1	1742	9665
1	1788	9666
1	1832	9667
1	1857	9668
1	1869	9669
1	1869	9670
1	1856	9671
1	1827	9672
1	1782	9673
1	1730	9674
1	1683	9675
1	1646	9676
1	1608	9677
1	1580	9678
1	1564	9679
1	1553	9680
1	1552	9681
1	1566	9682
1	1589	9683
1	1616	9684
1	1645	9685
1	1680	9686
1	1715	9687
1	1747	9688
1	1763	9689
1	1765	9690
1	1764	9691
1	1749	9692
1	1738	9693
1	1725	9694
1	1712	9695
1	1695	9696
1	1671	9697
1	1657	9698
1	1646	9699
1	1644	9700
1	1655	9701
1	1672	9702
1	1692	9703
1	1710	9704
1	1738	9705
1	1766	9706
1	1790	9707
1	1809	9708
1	1808	9709
1	1792	9710
1	1769	9711
1	1739	9712
1	1708	9713
1	1672	9714
1	1638	9715
1	1605	9716
1	1575	9717
1	1555	9718
1	1548	9719
1	1550	9720
1	1566	9721
1	1591	9722
1	1634	9723
1	1674	9724
1	1727	9725
1	1782	9726
1	1842	9727
1	1881	9728
1	1901	9729
1	1907	9730
1	1906	9731
1	1895	9732
1	1868	9733
1	1818	9734
1	1766	9735
1	1724	9736
1	1684	9737
1	1647	9738
1	1621	9739
1	1602	9740
1	1595	9741
1	1615	9742
1	1634	9743
1	1664	9744
1	1699	9745
1	1739	9746
1	1773	9747
1	1801	9748
1	1816	9749
1	1821	9750
1	1818	9751
1	1800	9752
1	1781	9753
1	1737	9754
1	1698	9755
1	1656	9756
1	1620	9757
1	1587	9758
1	1567	9759
1	1559	9760
1	1566	9761
1	1581	9762
1	1611	9763
1	1650	9764
1	1701	9765
1	1762	9766
1	1811	9767
1	1843	9768
1	1865	9769
1	1868	9770
1	1859	9771
1	1843	9772
1	1816	9773
1	1772	9774
1	1730	9775
1	1693	9776
1	1668	9777
1	1647	9778
1	1628	9779
1	1622	9780
1	1635	9781
1	1660	9782
1	1701	9783
1	1746	9784
1	1791	9785
1	1843	9786
1	1880	9787
1	1911	9788
1	1936	9789
1	1950	9790
1	1949	9791
1	1939	9792
1	1907	9793
1	1881	9794
1	1841	9795
1	1791	9796
1	1751	9797
1	1720	9798
1	1700	9799
1	1692	9800
1	1699	9801
1	1715	9802
1	1742	9803
1	1782	9804
1	1836	9805
1	1890	9806
1	1947	9807
1	1991	9808
1	2016	9809
1	2024	9810
1	2013	9811
1	1994	9812
1	1970	9813
1	1946	9814
1	1904	9815
1	1857	9816
1	1811	9817
1	1766	9818
1	1740	9819
1	1736	9820
1	1749	9821
1	1775	9822
1	1811	9823
1	1836	9824
1	1866	9825
1	1897	9826
1	1919	9827
1	1937	9828
1	1940	9829
1	1936	9830
1	1922	9831
1	1895	9832
1	1863	9833
1	1829	9834
1	1790	9835
1	1764	9836
1	1744	9837
1	1731	9838
1	1726	9839
1	1733	9840
1	1744	9841
1	1764	9842
1	1802	9843
1	1837	9844
1	1875	9845
1	1908	9846
1	1939	9847
1	1951	9848
1	1953	9849
1	1947	9850
1	1926	9851
1	1898	9852
1	1868	9853
1	1827	9854
1	1788	9855
1	1750	9856
1	1711	9857
1	1680	9858
1	1670	9859
1	1669	9860
1	1682	9861
1	1705	9862
1	1746	9863
1	1800	9864
1	1852	9865
1	1884	9866
1	1908	9867
1	1910	9868
1	1900	9869
1	1886	9870
1	1857	9871
1	1823	9872
1	1790	9873
1	1764	9874
1	1733	9875
1	1697	9876
1	1664	9877
1	1638	9878
1	1618	9879
1	1602	9880
1	1594	9881
1	1594	9882
1	1603	9883
1	1620	9884
1	1649	9885
1	1686	9886
1	1712	9887
1	1742	9888
1	1755	9889
1	1760	9890
1	1744	9891
1	1715	9892
1	1686	9893
1	1658	9894
1	1634	9895
1	1621	9896
1	1610	9897
1	1606	9898
1	1598	9899
1	1589	9900
1	1586	9901
1	1593	9902
1	1611	9903
1	1636	9904
1	1672	9905
1	1712	9906
1	1751	9907
1	1787	9908
1	1811	9909
1	1813	9910
1	1785	9911
1	1743	9912
1	1697	9913
1	1638	9914
1	1594	9915
1	1559	9916
1	1535	9917
1	1520	9918
1	1517	9919
1	1515	9920
1	1520	9921
1	1537	9922
1	1559	9923
1	1589	9924
1	1625	9925
1	1660	9926
1	1688	9927
1	1712	9928
1	1721	9929
1	1734	9930
1	1734	9931
1	1716	9932
1	1704	9933
1	1675	9934
1	1633	9935
1	1600	9936
1	1574	9937
1	1551	9938
1	1533	9939
1	1524	9940
1	1534	9941
1	1561	9942
1	1599	9943
1	1646	9944
1	1693	9945
1	1741	9946
1	1776	9947
1	1812	9948
1	1808	9949
1	1791	9950
1	1762	9951
1	1730	9952
1	1686	9953
1	1642	9954
1	1602	9955
1	1566	9956
1	1530	9957
1	1508	9958
1	1495	9959
1	1498	9960
1	1517	9961
1	1548	9962
1	1581	9963
1	1623	9964
1	1665	9965
1	1711	9966
1	1749	9967
1	1773	9968
1	1782	9969
1	1773	9970
1	1751	9971
1	1717	9972
1	1683	9973
1	1638	9974
1	1598	9975
1	1560	9976
1	1529	9977
1	1520	9978
1	1519	9979
1	1534	9980
1	1561	9981
1	1594	9982
1	1629	9983
1	1665	9984
1	1710	9985
1	1752	9986
1	1791	9987
1	1816	9988
1	1813	9989
1	1791	9990
1	1764	9991
1	1717	9992
1	1679	9993
1	1629	9994
1	1581	9995
1	1539	9996
1	1507	9997
1	1487	9998
1	1476	9999
1	1489	10000
1	1513	10001
1	1551	10002
1	1602	10003
1	1651	10004
1	1699	10005
1	1742	10006
1	1778	10007
1	1816	10008
1	1832	10009
1	1836	10010
1	1825	10011
1	1800	10012
1	1764	10013
1	1724	10014
1	1673	10015
1	1625	10016
1	1581	10017
1	1546	10018
1	1523	10019
1	1523	10020
1	1541	10021
1	1567	10022
1	1603	10023
1	1645	10024
1	1688	10025
1	1735	10026
1	1765	10027
1	1789	10028
1	1796	10029
1	1796	10030
1	1790	10031
1	1768	10032
1	1742	10033
1	1708	10034
1	1668	10035
1	1626	10036
1	1589	10037
1	1557	10038
1	1538	10039
1	1517	10040
1	1526	10041
1	1551	10042
1	1581	10043
1	1618	10044
1	1657	10045
1	1697	10046
1	1729	10047
1	1752	10048
1	1764	10049
1	1764	10050
1	1760	10051
1	1742	10052
1	1713	10053
1	1663	10054
1	1600	10055
1	1536	10056
1	1476	10057
1	1426	10058
1	1400	10059
1	1401	10060
1	1428	10061
1	1465	10062
1	1513	10063
1	1570	10064
1	1635	10065
1	1700	10066
1	1751	10067
1	1787	10068
1	1814	10069
1	1807	10070
1	1782	10071
1	1751	10072
1	1712	10073
1	1678	10074
1	1647	10075
1	1620	10076
1	1598	10077
1	1586	10078
1	1581	10079
1	1594	10080
1	1620	10081
1	1652	10082
1	1698	10083
1	1737	10084
1	1776	10085
1	1817	10086
1	1843	10087
1	1863	10088
1	1868	10089
1	1854	10090
1	1825	10091
1	1786	10092
