#Date:= 2024-10-08T16:06:06.430519
#Sampling Rate(Hz):= 1000
#Labels:= LOD	ECG	TS
1	3130	20
1	3130	21
1	3130	22
1	3130	23
1	3130	24
1	3130	25
1	3130	26
1	3130	27
1	3130	28
1	3130	29
1	3130	30
1	3130	31
1	3130	32
1	3130	33
1	3130	34
1	3130	35
1	3130	36
1	3130	37
1	2201	38
1	2208	39
1	2211	40
1	2220	41
1	2229	42
1	2235	43
1	2236	44
1	2235	45
1	2233	46
1	2213	47
1	2209	48
1	2197	49
1	2186	50
1	2183	51
1	2183	52
1	2173	53
1	2168	54
1	2165	55
1	2161	56
1	2159	57
1	2160	58
1	2161	59
1	2110	80
1	2102	81
1	2097	82
1	2095	83
1	2093	84
1	2100	85
1	2105	86
1	2108	87
1	2118	88
1	2128	89
1	2135	90
1	2140	91
1	2133	92
1	2131	93
1	2130	94
1	2123	95
1	2119	96
1	2122	97
1	2119	98
1	2115	99
1	2165	60
1	2172	61
1	2171	62
1	2176	63
1	2183	64
1	2183	65
1	2185	66
1	2183	67
1	2194	68
1	2193	69
1	2186	70
1	2181	71
1	2173	72
1	2167	73
1	2157	74
1	2154	75
1	2149	76
1	2132	77
1	2129	78
1	2120	79
1	2112	100
1	2109	101
1	2110	102
1	2115	103
1	2120	104
1	2121	105
1	2120	106
1	2118	107
1	2119	108
1	2122	109
1	2121	110
1	2115	111
1	2107	112
1	2097	113
1	2084	114
1	2079	115
1	2076	116
1	2071	117
1	2066	118
1	2063	119
1	2061	120
1	2066	121
1	2066	122
1	2069	123
1	2076	124
1	2082	125
1	2088	126
1	2103	127
1	2113	128
1	2122	129
1	2132	130
1	2147	131
1	2158	132
1	2166	133
1	2166	134
1	2165	135
1	2162	136
1	2150	137
1	2143	138
1	2132	139
1	2124	140
1	2114	141
1	2102	142
1	2093	143
1	2079	144
1	2071	145
1	2070	146
1	2069	147
1	2074	148
1	2076	149
1	2079	150
1	2082	151
1	2079	152
1	2087	153
1	2093	154
1	2102	155
1	2106	156
1	2111	157
1	2111	158
1	2110	159
1	2115	160
1	2120	161
1	2120	162
1	2119	163
1	2112	164
1	2105	165
1	2097	166
1	2079	167
1	2070	168
1	2063	169
1	2058	170
1	2061	171
1	2070	172
1	2075	173
1	2080	174
1	2084	175
1	2088	176
1	2089	177
1	2091	178
1	2090	179
1	2089	180
1	2091	181
1	2084	182
1	2082	183
1	2083	184
1	2080	185
1	2080	186
1	2083	187
1	2079	188
1	2075	189
1	2068	190
1	2063	191
1	2057	192
1	2058	193
1	2060	194
1	2052	195
1	2051	196
1	2051	197
1	2052	198
1	2052	199
1	2053	200
1	2054	201
1	2061	202
1	2058	203
1	2056	204
1	2052	205
1	2052	206
1	2050	207
1	2048	208
1	2044	209
1	2039	210
1	2037	211
1	2025	212
1	2019	213
1	2013	214
1	2007	215
1	2001	216
1	2001	217
1	2000	218
1	2000	219
1	2003	220
1	2009	221
1	2011	222
1	2012	223
1	2012	224
1	2014	225
1	2016	226
1	2012	227
1	2011	228
1	2008	229
1	2003	230
1	2005	231
1	2006	232
1	2002	233
1	2000	234
1	2000	235
1	2000	236
1	2002	237
1	2005	238
1	2007	239
1	2014	240
1	2024	241
1	2028	242
1	2027	243
1	2027	244
1	2026	245
1	2026	246
1	2025	247
1	2024	248
1	2023	249
1	2017	250
1	2021	251
1	2016	252
1	2009	253
1	2003	254
1	1999	255
1	1992	256
1	1978	257
1	1975	258
1	1973	259
1	1966	260
1	1968	261
1	1968	262
1	1975	263
1	1975	264
1	1975	265
1	1974	266
1	1976	267
1	1974	268
1	1974	269
1	1970	270
1	1967	271
1	1959	272
1	1955	273
1	1953	274
1	1949	275
1	1948	276
1	1949	277
1	1948	278
1	1949	279
1	1958	280
1	1968	281
1	1979	282
1	1987	283
1	1989	284
1	1989	285
1	1989	286
1	1975	287
1	1971	288
1	1959	289
1	1949	290
1	1943	291
1	1937	292
1	1930	293
1	1923	294
1	1914	295
1	1921	296
1	1922	297
1	1922	298
1	1929	299
1	1934	300
1	1939	301
1	1938	302
1	1945	303
1	1958	304
1	1974	305
1	1996	306
1	2021	307
1	2039	308
1	2061	309
1	2086	310
1	2111	311
1	2140	312
1	2170	313
1	2199	314
1	2230	315
1	2258	316
1	2282	317
1	2297	318
1	2320	319
1	2345	320
1	2369	321
1	2391	322
1	2417	323
1	2433	324
1	2454	325
1	2476	326
1	2496	327
1	2513	328
1	2528	329
1	2545	330
1	2558	331
1	2568	332
1	2567	333
1	2566	334
1	2559	335
1	2548	336
1	2535	337
1	2511	338
1	2467	339
1	2424	340
1	2376	341
1	2315	342
1	2266	343
1	2218	344
1	2174	345
1	2137	346
1	2104	347
1	2076	348
1	2048	349
1	2019	350
1	1988	351
1	1961	352
1	1931	353
1	1908	354
1	1884	355
1	1872	356
1	1863	357
1	1861	358
1	1865	359
1	1872	360
1	1885	361
1	1899	362
1	1909	363
1	1922	364
1	1935	365
1	1948	366
1	1962	367
1	1971	368
1	1974	369
1	1974	370
1	1974	371
1	1974	372
1	1974	373
1	1972	374
1	1970	375
1	1963	376
1	1958	377
1	1946	378
1	1937	379
1	1933	380
1	1927	381
1	1930	382
1	1924	383
1	1922	384
1	1917	385
1	1913	386
1	1917	387
1	1921	388
1	1926	389
1	1935	390
1	1940	391
1	1943	392
1	1934	393
1	1931	394
1	1926	395
1	1921	396
1	1921	397
1	1917	398
1	1916	399
1	1911	400
1	1914	401
1	1918	402
1	1922	403
1	1926	404
1	1935	405
1	1943	406
1	1946	407
1	1939	408
1	1939	409
1	1939	410
1	1934	411
1	1930	412
1	1933	413
1	1926	414
1	1922	415
1	1913	416
1	1908	417
1	1904	418
1	1899	419
1	1904	420
1	1904	421
1	1912	422
1	1910	423
1	1919	424
1	1924	425
1	1932	426
1	1944	427
1	1949	428
1	1951	429
1	1953	430
1	1954	431
1	1956	432
1	1958	433
1	1950	434
1	1946	435
1	1944	436
1	1940	437
1	1933	438
1	1929	439
1	1927	440
1	1922	441
1	1919	442
1	1923	443
1	1922	444
1	1922	445
1	1926	446
1	1924	447
1	1926	448
1	1926	449
1	1924	450
1	1922	451
1	1923	452
1	1922	453
1	1922	454
1	1922	455
1	1920	456
1	1917	457
1	1913	458
1	1911	459
1	1908	460
1	1910	461
1	1912	462
1	1917	463
1	1922	464
1	1929	465
1	1935	466
1	1942	467
1	1940	468
1	1944	469
1	1946	470
1	1949	471
1	1960	472
1	1960	473
1	1961	474
1	1962	475
1	1962	476
1	1959	477
1	1959	478
1	1961	479
1	1965	480
1	1970	481
1	1973	482
1	1966	483
1	1962	484
1	1958	485
1	1955	486
1	1955	487
1	1950	488
1	1948	489
1	1948	490
1	1949	491
1	1952	492
1	1953	493
1	1953	494
1	1953	495
1	1962	496
1	1970	497
1	1976	498
1	1982	499
1	1988	500
1	1992	501
1	2000	502
1	2002	503
1	2000	504
1	2000	505
1	2000	506
1	2000	507
1	2000	508
1	2000	509
1	2001	510
1	2004	511
1	2003	512
1	1997	513
1	1995	514
1	1994	515
1	1996	516
1	1996	517
1	2008	518
1	2014	519
1	2022	520
1	2029	521
1	2035	522
1	2042	523
1	2043	524
1	2042	525
1	2037	526
1	2030	527
1	2022	528
1	2019	529
1	2016	530
1	2016	531
1	2021	532
1	2017	533
1	2011	534
1	2011	535
1	2021	536
1	2030	537
1	2042	538
1	2050	539
1	2058	560
1	2066	561
1	2068	562
1	2070	563
1	2075	564
1	2071	565
1	2079	566
1	2079	567
1	2079	568
1	2081	569
1	2083	570
1	2084	571
1	2083	572
1	2076	573
1	2075	574
1	2074	575
1	2073	576
1	2080	577
1	2080	578
1	2083	579
1	2054	540
1	2061	541
1	2061	542
1	2057	543
1	2052	544
1	2052	545
1	2052	546
1	2052	547
1	2061	548
1	2063	549
1	2067	550
1	2075	551
1	2076	552
1	2078	553
1	2075	554
1	2067	555
1	2061	556
1	2058	557
1	2052	558
1	2054	559
1	2081	580
1	2079	581
1	2078	582
1	2078	583
1	2079	584
1	2080	585
1	2092	586
1	2099	587
1	2097	588
1	2097	589
1	2099	590
1	2102	591
1	2109	592
1	2111	593
1	2110	594
1	2101	595
1	2102	596
1	2097	597
1	2093	598
1	2088	599
1	2084	600
1	2078	601
1	2073	602
1	2058	603
1	2052	604
1	2048	605
1	2048	606
1	2052	607
1	2057	608
1	2064	609
1	2070	610
1	2077	611
1	2077	612
1	2073	613
1	2066	614
1	2055	615
1	2042	616
1	2027	617
1	2011	618
1	1998	619
1	1987	620
1	1984	621
1	1983	622
1	1978	623
1	1975	624
1	1973	625
1	1962	626
1	1953	627
1	1947	628
1	1935	629
1	1929	630
1	1923	631
1	1923	632
1	1917	633
1	1919	634
1	1922	635
1	1919	636
1	1922	637
1	1919	638
1	1917	639
1	1920	640
1	1932	641
1	1934	642
1	1947	643
1	1950	644
1	1953	645
1	1960	646
1	1961	647
1	1965	648
1	1964	649
1	1962	650
1	1953	651
1	1942	652
1	1930	653
1	1922	654
1	1908	655
1	1907	656
1	1897	657
1	1890	658
1	1884	659
1	1881	660
1	1881	661
1	1885	662
1	1881	663
1	1885	664
1	1886	665
1	1890	666
1	1896	667
1	1898	668
1	1898	669
1	1896	670
1	1893	671
1	1885	672
1	1880	673
1	1881	674
1	1883	675
1	1888	676
1	1895	677
1	1892	678
1	1895	679
1	1896	680
1	1899	681
1	1913	682
1	1922	683
1	1929	684
1	1931	685
1	1934	686
1	1935	687
1	1927	688
1	1922	689
1	1913	690
1	1908	691
1	1901	692
1	1891	693
1	1884	694
1	1885	695
1	1887	696
1	1895	697
1	1896	698
1	1899	699
1	1905	700
1	1908	701
1	1903	702
1	1900	703
1	1899	704
1	1899	705
1	1904	706
1	1910	707
1	1909	708
1	1915	709
1	1921	710
1	1924	711
1	1932	712
1	1935	713
1	1931	714
1	1931	715
1	1924	716
1	1924	717
1	1924	718
1	1922	719
1	1935	740
1	1940	741
1	1936	742
1	1939	743
1	1927	744
1	1922	745
1	1913	746
1	1908	747
1	1899	748
1	1895	749
1	1895	750
1	1895	751
1	1895	752
1	1893	753
1	1896	754
1	1904	755
1	1908	756
1	1908	757
1	1903	758
1	1908	759
1	1920	720
1	1913	721
1	1908	722
1	1896	723
1	1890	724
1	1884	725
1	1881	726
1	1880	727
1	1884	728
1	1887	729
1	1890	730
1	1892	731
1	1895	732
1	1893	733
1	1893	734
1	1895	735
1	1898	736
1	1908	737
1	1911	738
1	1923	739
1	1905	760
1	1906	761
1	1904	762
1	1903	763
1	1909	764
1	1916	765
1	1926	766
1	1935	767
1	1934	768
1	1936	769
1	1935	770
1	1933	771
1	1935	772
1	1935	773
1	1933	774
1	1926	775
1	1920	776
1	1911	777
1	1904	778
1	1898	779
1	1900	780
1	1904	781
1	1910	782
1	1913	783
1	1920	784
1	1930	785
1	1944	786
1	1959	787
1	1968	788
1	1968	789
1	1963	790
1	1953	791
1	1944	792
1	1931	793
1	1922	794
1	1910	795
1	1903	796
1	1890	797
1	1881	798
1	1880	799
1	1881	800
1	1885	801
1	1895	802
1	1903	803
1	1908	804
1	1916	805
1	1922	806
1	1926	807
1	1930	808
1	1935	809
1	1936	810
1	1934	811
1	1932	812
1	1924	813
1	1924	814
1	1926	815
1	1924	816
1	1931	817
1	1930	818
1	1929	819
1	1926	820
1	1926	821
1	1924	822
1	1923	823
1	1922	824
1	1920	825
1	1919	826
1	1919	827
1	1916	828
1	1917	829
1	1922	830
1	1926	831
1	1935	832
1	1940	833
1	1943	834
1	1948	835
1	1948	836
1	1948	837
1	1944	838
1	1934	839
1	1931	840
1	1921	841
1	1914	842
1	1909	843
1	1911	844
1	1914	845
1	1921	846
1	1924	847
1	1929	848
1	1935	849
1	1926	850
1	1927	851
1	1922	852
1	1913	853
1	1908	854
1	1904	855
1	1903	856
1	1908	857
1	1909	858
1	1914	859
1	1922	880
1	1930	881
1	1935	882
1	1933	883
1	1927	884
1	1918	885
1	1908	886
1	1901	887
1	1886	888
1	1880	889
1	1877	890
1	1877	891
1	1886	892
1	1895	893
1	1902	894
1	1910	895
1	1918	896
1	1926	897
1	1935	898
1	1946	899
1	1919	860
1	1923	861
1	1935	862
1	1937	863
1	1936	864
1	1940	865
1	1938	866
1	1937	867
1	1932	868
1	1926	869
1	1921	870
1	1913	871
1	1908	872
1	1896	873
1	1896	874
1	1898	875
1	1899	876
1	1910	877
1	1910	878
1	1914	879
1	1953	900
1	1959	901
1	1961	902
1	1955	903
1	1949	904
1	1945	905
1	1939	906
1	1940	907
1	1937	908
1	1934	909
1	1935	910
1	1933	911
1	1934	912
1	1935	913
1	1937	914
1	1935	915
1	1934	916
1	1930	917
1	1919	918
1	1909	919
1	1901	920
1	1890	921
1	1884	922
1	1874	923
1	1869	924
1	1869	925
1	1878	926
1	1888	927
1	1895	928
1	1902	929
1	1904	930
1	1900	931
1	1895	932
1	1883	933
1	1877	934
1	1873	935
1	1879	936
1	1893	937
1	1903	938
1	1907	939
1	1910	940
1	1922	941
1	1922	942
1	1921	943
1	1920	944
1	1919	945
1	1917	946
1	1912	947
1	1907	948
1	1899	949
1	1890	950
1	1883	951
1	1875	952
1	1872	953
1	1872	954
1	1871	955
1	1890	956
1	1895	957
1	1903	958
1	1909	959
1	1917	960
1	1922	961
1	1926	962
1	1923	963
1	1926	964
1	1931	965
1	1935	966
1	1940	967
1	1936	968
1	1934	969
1	1927	970
1	1925	971
1	1926	972
1	1929	973
1	1931	974
1	1926	975
1	1922	976
1	1918	977
1	1906	978
1	1904	979
1	1905	980
1	1906	981
1	1909	982
1	1904	983
1	1898	984
1	1893	985
1	1885	986
1	1884	987
1	1880	988
1	1879	989
1	1880	990
1	1881	991
1	1882	992
1	1877	993
1	1875	994
1	1874	995
1	1880	996
1	1895	997
1	1904	998
1	1914	999
1	1924	1000
1	1935	1001
1	1947	1002
1	1956	1003
1	1964	1004
1	1970	1005
1	1974	1006
1	1975	1007
1	1970	1008
1	1966	1009
1	1959	1010
1	1949	1011
1	1942	1012
1	1926	1013
1	1913	1014
1	1898	1015
1	1886	1016
1	1877	1017
1	1878	1018
1	1886	1019
1	1844	1040
1	1841	1041
1	1832	1042
1	1831	1043
1	1817	1044
1	1817	1045
1	1817	1046
1	1816	1047
1	1815	1048
1	1817	1049
1	1823	1050
1	1831	1051
1	1835	1052
1	1841	1053
1	1841	1054
1	1839	1055
1	1836	1056
1	1834	1057
1	1828	1058
1	1824	1059
1	1898	1020
1	1910	1021
1	1922	1022
1	1914	1023
1	1904	1024
1	1895	1025
1	1882	1026
1	1880	1027
1	1869	1028
1	1864	1029
1	1859	1030
1	1854	1031
1	1852	1032
1	1849	1033
1	1850	1034
1	1851	1035
1	1856	1036
1	1856	1037
1	1849	1038
1	1845	1039
1	1843	1080
1	1843	1081
1	1843	1082
1	1837	1083
1	1832	1084
1	1827	1085
1	1825	1086
1	1829	1087
1	1826	1088
1	1821	1089
1	1815	1090
1	1803	1091
1	1793	1092
1	1790	1093
1	1790	1094
1	1792	1095
1	1803	1096
1	1817	1097
1	1822	1098
1	1830	1099
1	1823	1060
1	1833	1061
1	1840	1062
1	1841	1063
1	1845	1064
1	1845	1065
1	1849	1066
1	1850	1067
1	1848	1068
1	1853	1069
1	1856	1070
1	1859	1071
1	1864	1072
1	1858	1073
1	1852	1074
1	1844	1075
1	1842	1076
1	1843	1077
1	1843	1078
1	1844	1079
1	1838	1100
1	1843	1101
1	1849	1102
1	1849	1103
1	1844	1104
1	1841	1105
1	1838	1106
1	1832	1107
1	1824	1108
1	1821	1109
1	1821	1110
1	1817	1111
1	1817	1112
1	1809	1113
1	1801	1114
1	1794	1115
1	1796	1116
1	1812	1117
1	1815	1118
1	1821	1119
1	1831	1120
1	1843	1121
1	1860	1122
1	1883	1123
1	1909	1124
1	1939	1125
1	1974	1126
1	2003	1127
1	2026	1128
1	2054	1129
1	2082	1130
1	2111	1131
1	2138	1132
1	2161	1133
1	2183	1134
1	2204	1135
1	2232	1136
1	2260	1137
1	2288	1138
1	2314	1139
1	2335	1140
1	2362	1141
1	2386	1142
1	2407	1143
1	2425	1144
1	2445	1145
1	2459	1146
1	2470	1147
1	2471	1148
1	2471	1149
1	2471	1150
1	2471	1151
1	2451	1152
1	2421	1153
1	2374	1154
1	2314	1155
1	2245	1156
1	2167	1157
1	2084	1158
1	2012	1159
1	1949	1160
1	1895	1161
1	1856	1162
1	1818	1163
1	1791	1164
1	1773	1165
1	1762	1166
1	1751	1167
1	1746	1168
1	1741	1169
1	1744	1170
1	1750	1171
1	1760	1172
1	1763	1173
1	1770	1174
1	1776	1175
1	1782	1176
1	1791	1177
1	1793	1178
1	1792	1179
1	1791	1180
1	1791	1181
1	1790	1182
1	1789	1183
1	1788	1184
1	1786	1185
1	1785	1186
1	1785	1187
1	1776	1188
1	1775	1189
1	1777	1190
1	1778	1191
1	1785	1192
1	1790	1193
1	1791	1194
1	1792	1195
1	1792	1196
1	1791	1197
1	1790	1198
1	1783	1199
1	1778	1200
1	1770	1201
1	1765	1202
1	1753	1203
1	1751	1204
1	1748	1205
1	1747	1206
1	1755	1207
1	1761	1208
1	1764	1209
1	1764	1210
1	1762	1211
1	1760	1212
1	1752	1213
1	1747	1214
1	1742	1215
1	1738	1216
1	1737	1217
1	1724	1218
1	1721	1219
1	1723	1220
1	1727	1221
1	1738	1222
1	1741	1223
1	1747	1224
1	1751	1225
1	1760	1226
1	1764	1227
1	1767	1228
1	1767	1229
1	1767	1230
1	1766	1231
1	1764	1232
1	1754	1233
1	1751	1234
1	1749	1235
1	1751	1236
1	1762	1237
1	1765	1238
1	1765	1239
1	1688	1280
1	1688	1281
1	1698	1282
1	1705	1283
1	1712	1284
1	1723	1285
1	1736	1286
1	1747	1287
1	1755	1288
1	1760	1289
1	1755	1290
1	1751	1291
1	1746	1292
1	1734	1293
1	1727	1294
1	1721	1295
1	1712	1296
1	1712	1297
1	1712	1298
1	1712	1299
1	1766	1240
1	1772	1241
1	1760	1242
1	1751	1243
1	1746	1244
1	1738	1245
1	1727	1246
1	1718	1247
1	1712	1248
1	1708	1249
1	1701	1250
1	1697	1251
1	1690	1252
1	1688	1253
1	1688	1254
1	1686	1255
1	1694	1256
1	1697	1257
1	1703	1258
1	1712	1259
1	1721	1260
1	1731	1261
1	1739	1262
1	1738	1263
1	1741	1264
1	1746	1265
1	1756	1266
1	1769	1267
1	1772	1268
1	1772	1269
1	1767	1270
1	1764	1271
1	1755	1272
1	1744	1273
1	1733	1274
1	1718	1275
1	1710	1276
1	1706	1277
1	1695	1278
1	1691	1279
1	1713	1300
1	1717	1301
1	1713	1302
1	1713	1303
1	1715	1304
1	1718	1305
1	1719	1306
1	1720	1307
1	1714	1308
1	1714	1309
1	1715	1310
1	1718	1311
1	1723	1312
1	1724	1313
1	1721	1314
1	1714	1315
1	1710	1316
1	1711	1317
1	1712	1318
1	1721	1319
1	1733	1320
1	1744	1321
1	1761	1322
1	1764	1323
1	1769	1324
1	1777	1325
1	1780	1326
1	1782	1327
1	1773	1328
1	1764	1329
1	1753	1330
1	1749	1331
1	1741	1332
1	1738	1333
1	1738	1334
1	1738	1335
1	1741	1336
1	1747	1337
1	1749	1338
1	1757	1339
1	1764	1340
1	1770	1341
1	1772	1342
1	1780	1343
1	1778	1344
1	1791	1345
1	1795	1346
1	1801	1347
1	1800	1348
1	1803	1349
1	1803	1350
1	1809	1351
1	1808	1352
1	1800	1353
1	1796	1354
1	1790	1355
1	1780	1356
1	1767	1357
1	1760	1358
1	1753	1359
1	1751	1360
1	1754	1361
1	1754	1362
1	1756	1363
1	1759	1364
1	1760	1365
1	1764	1366
1	1761	1367
1	1755	1368
1	1756	1369
1	1764	1370
1	1770	1371
1	1780	1372
1	1783	1373
1	1783	1374
1	1783	1375
1	1783	1376
1	1788	1377
1	1790	1378
1	1793	1379
1	1800	1380
1	1810	1381
1	1816	1382
1	1815	1383
1	1817	1384
1	1817	1385
1	1814	1386
1	1817	1387
1	1813	1388
1	1809	1389
1	1800	1390
1	1791	1391
1	1791	1392
1	1789	1393
1	1787	1394
1	1782	1395
1	1778	1396
1	1773	1397
1	1764	1398
1	1760	1399
1	1761	1400
1	1764	1401
1	1776	1402
1	1778	1403
1	1778	1404
1	1781	1405
1	1783	1406
1	1784	1407
1	1783	1408
1	1779	1409
1	1773	1410
1	1764	1411
1	1757	1412
1	1738	1413
1	1730	1414
1	1724	1415
1	1719	1416
1	1719	1417
1	1712	1418
1	1705	1419
1	1697	1420
1	1688	1421
1	1683	1422
1	1677	1423
1	1671	1424
1	1669	1425
1	1669	1426
1	1665	1427
1	1658	1428
1	1649	1429
1	1644	1430
1	1641	1431
1	1642	1432
1	1638	1433
1	1638	1434
1	1638	1435
1	1638	1436
1	1636	1437
1	1634	1438
1	1625	1439
1	1620	1440
1	1616	1441
1	1610	1442
1	1607	1443
1	1607	1444
1	1600	1445
1	1600	1446
1	1596	1447
1	1592	1448
1	1584	1449
1	1581	1450
1	1586	1451
1	1583	1452
1	1580	1453
1	1569	1454
1	1556	1455
1	1541	1456
1	1528	1457
1	1516	1458
1	1507	1459
1	1505	1460
1	1510	1461
1	1521	1462
1	1529	1463
1	1538	1464
1	1547	1465
1	1555	1466
1	1563	1467
1	1569	1468
1	1576	1469
1	1579	1470
1	1580	1471
1	1579	1472
1	1569	1473
1	1561	1474
1	1554	1475
1	1543	1476
1	1531	1477
1	1519	1478
1	1512	1479
1	1503	1480
1	1502	1481
1	1500	1482
1	1500	1483
1	1503	1484
1	1504	1485
1	1508	1486
1	1508	1487
1	1506	1488
1	1505	1489
1	1503	1490
1	1502	1491
1	1499	1492
1	1491	1493
1	1484	1494
1	1476	1495
1	1472	1496
1	1467	1497
1	1463	1498
1	1459	1499
1	1464	1500
1	1476	1501
1	1484	1502
1	1490	1503
1	1503	1504
1	1517	1505
1	1529	1506
1	1542	1507
1	1551	1508
1	1555	1509
1	1555	1510
1	1554	1511
1	1548	1512
1	1541	1513
1	1529	1514
1	1518	1515
1	1505	1516
1	1500	1517
1	1490	1518
1	1485	1519
1	1485	1520
1	1485	1521
1	1490	1522
1	1491	1523
1	1490	1524
1	1492	1525
1	1494	1526
1	1499	1527
1	1501	1528
1	1503	1529
1	1507	1530
1	1512	1531
1	1512	1532
1	1503	1533
1	1500	1534
1	1491	1535
1	1487	1536
1	1487	1537
1	1485	1538
1	1479	1539
1	1485	1540
1	1495	1541
1	1499	1542
1	1511	1543
1	1516	1544
1	1518	1545
1	1519	1546
1	1512	1547
1	1503	1548
1	1490	1549
1	1481	1550
1	1476	1551
1	1471	1552
1	1467	1553
1	1465	1554
1	1467	1555
1	1476	1556
1	1481	1557
1	1490	1558
1	1497	1559
1	1503	1560
1	1513	1561
1	1517	1562
1	1511	1563
1	1506	1564
1	1502	1565
1	1494	1566
1	1488	1567
1	1490	1568
1	1495	1569
1	1502	1570
1	1508	1571
1	1516	1572
1	1526	1573
1	1529	1574
1	1529	1575
1	1526	1576
1	1518	1577
1	1505	1578
1	1500	1579
1	1473	1600
1	1484	1601
1	1494	1602
1	1503	1603
1	1515	1604
1	1513	1605
1	1514	1606
1	1514	1607
1	1507	1608
1	1503	1609
1	1503	1610
1	1494	1611
1	1491	1612
1	1485	1613
1	1476	1614
1	1476	1615
1	1469	1616
1	1464	1617
1	1463	1618
1	1461	1619
1	1495	1580
1	1491	1581
1	1490	1582
1	1485	1583
1	1484	1584
1	1486	1585
1	1490	1586
1	1494	1587
1	1495	1588
1	1493	1589
1	1490	1590
1	1484	1591
1	1476	1592
1	1461	1593
1	1454	1594
1	1455	1595
1	1451	1596
1	1456	1597
1	1458	1598
1	1464	1599
1	1464	1620
1	1467	1621
1	1469	1622
1	1471	1623
1	1475	1624
1	1477	1625
1	1481	1626
1	1486	1627
1	1489	1628
1	1488	1629
1	1489	1630
1	1485	1631
1	1484	1632
1	1481	1633
1	1484	1634
1	1488	1635
1	1490	1636
1	1490	1637
1	1479	1638
1	1476	1639
1	1468	1660
1	1478	1661
1	1490	1662
1	1500	1663
1	1502	1664
1	1497	1665
1	1490	1666
1	1481	1667
1	1469	1668
1	1460	1669
1	1451	1670
1	1449	1671
1	1450	1672
1	1446	1673
1	1442	1674
1	1436	1675
1	1431	1676
1	1428	1677
1	1431	1678
1	1436	1679
1	1472	1640
1	1472	1641
1	1472	1642
1	1477	1643
1	1476	1644
1	1481	1645
1	1482	1646
1	1487	1647
1	1489	1648
1	1489	1649
1	1489	1650
1	1489	1651
1	1483	1652
1	1471	1653
1	1463	1654
1	1458	1655
1	1458	1656
1	1451	1657
1	1451	1658
1	1455	1659
1	1446	1680
1	1454	1681
1	1466	1682
1	1472	1683
1	1476	1684
1	1476	1685
1	1476	1686
1	1476	1687
1	1469	1688
1	1463	1689
1	1453	1690
1	1449	1691
1	1441	1692
1	1438	1693
1	1438	1694
1	1441	1695
1	1443	1696
1	1448	1697
1	1446	1698
1	1445	1699
1	1446	1700
1	1450	1701
1	1456	1702
1	1463	1703
1	1472	1704
1	1481	1705
1	1492	1706
1	1498	1707
1	1492	1708
1	1487	1709
1	1479	1710
1	1473	1711
1	1464	1712
1	1450	1713
1	1443	1714
1	1438	1715
1	1436	1716
1	1432	1717
1	1427	1718
1	1425	1719
1	1424	1720
1	1427	1721
1	1427	1722
1	1436	1723
1	1445	1724
1	1450	1725
1	1463	1726
1	1474	1727
1	1476	1728
1	1477	1729
1	1479	1730
1	1481	1731
1	1489	1732
1	1485	1733
1	1488	1734
1	1485	1735
1	1485	1736
1	1485	1737
1	1484	1738
1	1476	1739
1	1476	1740
1	1476	1741
1	1476	1742
1	1481	1743
1	1486	1744
1	1489	1745
1	1493	1746
1	1492	1747
1	1490	1748
1	1488	1749
1	1485	1750
1	1489	1751
1	1485	1752
1	1480	1753
1	1476	1754
1	1476	1755
1	1476	1756
1	1477	1757
1	1478	1758
1	1484	1759
1	1502	1780
1	1492	1781
1	1481	1782
1	1472	1783
1	1466	1784
1	1463	1785
1	1465	1786
1	1470	1787
1	1465	1788
1	1465	1789
1	1465	1790
1	1464	1791
1	1469	1792
1	1471	1793
1	1474	1794
1	1475	1795
1	1476	1796
1	1477	1797
1	1487	1798
1	1499	1799
1	1493	1760
1	1503	1761
1	1512	1762
1	1514	1763
1	1510	1764
1	1508	1765
1	1509	1766
1	1507	1767
1	1505	1768
1	1504	1769
1	1503	1770
1	1501	1771
1	1499	1772
1	1491	1773
1	1489	1774
1	1485	1775
1	1490	1776
1	1500	1777
1	1503	1778
1	1503	1779
1	1508	1800
1	1520	1801
1	1532	1802
1	1537	1803
1	1533	1804
1	1521	1805
1	1503	1806
1	1494	1807
1	1485	1808
1	1476	1809
1	1472	1810
1	1469	1811
1	1467	1812
1	1472	1813
1	1475	1814
1	1475	1815
1	1474	1816
1	1474	1817
1	1467	1818
1	1467	1819
1	1464	1820
1	1464	1821
1	1467	1822
1	1473	1823
1	1477	1824
1	1481	1825
1	1487	1826
1	1490	1827
1	1489	1828
1	1488	1829
1	1489	1830
1	1485	1831
1	1482	1832
1	1476	1833
1	1471	1834
1	1464	1835
1	1459	1836
1	1460	1837
1	1456	1838
1	1455	1839
1	1449	1840
1	1450	1841
1	1445	1842
1	1440	1843
1	1441	1844
1	1448	1845
1	1453	1846
1	1465	1847
1	1475	1848
1	1482	1849
1	1490	1850
1	1497	1851
1	1492	1852
1	1481	1853
1	1467	1854
1	1454	1855
1	1451	1856
1	1445	1857
1	1446	1858
1	1449	1859
1	1452	1860
1	1458	1861
1	1462	1862
1	1459	1863
1	1463	1864
1	1465	1865
1	1471	1866
1	1477	1867
1	1478	1868
1	1481	1869
1	1482	1870
1	1488	1871
1	1490	1872
1	1490	1873
1	1490	1874
1	1490	1875
1	1491	1876
1	1490	1877
1	1484	1878
1	1482	1879
1	1622	1900
1	1645	1901
1	1667	1902
1	1692	1903
1	1716	1904
1	1742	1905
1	1772	1906
1	1798	1907
1	1827	1908
1	1860	1909
1	1890	1910
1	1922	1911
1	1949	1912
1	1976	1913
1	2003	1914
1	2030	1915
1	2057	1916
1	2079	1917
1	2105	1918
1	2123	1919
1	1476	1880
1	1476	1881
1	1476	1882
1	1472	1883
1	1466	1884
1	1462	1885
1	1458	1886
1	1455	1887
1	1453	1888
1	1452	1889
1	1452	1890
1	1456	1891
1	1462	1892
1	1468	1893
1	1485	1894
1	1503	1895
1	1528	1896
1	1555	1897
1	1581	1898
1	1603	1899
1	2135	1920
1	2141	1921
1	2143	1922
1	2136	1923
1	2131	1924
1	2119	1925
1	2100	1926
1	2070	1927
1	2027	1928
1	1973	1929
1	1909	1930
1	1843	1931
1	1769	1932
1	1709	1933
1	1651	1934
1	1602	1935
1	1559	1936
1	1529	1937
1	1499	1938
1	1481	1939
1	1475	1940
1	1467	1941
1	1463	1942
1	1463	1943
1	1453	1944
1	1456	1945
1	1458	1946
1	1463	1947
1	1468	1948
1	1476	1949
1	1485	1950
1	1494	1951
1	1499	1952
1	1503	1953
1	1504	1954
1	1506	1955
1	1508	1956
1	1505	1957
1	1503	1958
1	1499	1959
1	1499	1960
1	1503	1961
1	1503	1962
1	1500	1963
1	1499	1964
1	1495	1965
1	1495	1966
1	1498	1967
1	1490	1968
1	1484	1969
1	1476	1970
1	1476	1971
1	1476	1972
1	1478	1973
1	1477	1974
1	1481	1975
1	1484	1976
1	1489	1977
1	1492	1978
1	1493	1979
1	1492	1980
1	1494	1981
1	1500	1982
1	1497	1983
1	1503	1984
1	1508	1985
1	1515	1986
1	1521	1987
1	1523	1988
1	1525	1989
1	1521	1990
1	1519	1991
1	1517	1992
1	1517	1993
1	1516	1994
1	1513	1995
1	1511	1996
1	1508	1997
1	1504	1998
1	1508	1999
1	1512	2000
1	1515	2001
1	1520	2002
1	1520	2003
1	1521	2004
1	1521	2005
1	1524	2006
1	1526	2007
1	1533	2008
1	1542	2009
1	1550	2010
1	1548	2011
1	1542	2012
1	1529	2013
1	1521	2014
1	1517	2015
1	1515	2016
1	1517	2017
1	1520	2018
1	1519	2019
1	1515	2020
1	1510	2021
1	1503	2022
1	1500	2023
1	1494	2024
1	1494	2025
1	1494	2026
1	1498	2027
1	1495	2028
1	1500	2029
1	1503	2030
1	1510	2031
1	1520	2032
1	1528	2033
1	1535	2034
1	1543	2035
1	1553	2036
1	1558	2037
1	1566	2038
1	1569	2039
1	1563	2040
1	1563	2041
1	1562	2042
1	1557	2043
1	1555	2044
1	1553	2045
1	1551	2046
1	1543	2047
1	1529	2048
1	1517	2049
1	1507	2050
1	1504	2051
1	1500	2052
1	1499	2053
1	1503	2054
1	1506	2055
1	1513	2056
1	1521	2057
1	1528	2058
1	1539	2059
1	1560	2080
1	1567	2081
1	1571	2082
1	1575	2083
1	1580	2084
1	1583	2085
1	1589	2086
1	1593	2087
1	1587	2088
1	1586	2089
1	1585	2090
1	1587	2091
1	1592	2092
1	1589	2093
1	1585	2094
1	1585	2095
1	1583	2096
1	1581	2097
1	1581	2098
1	1581	2099
1	1553	2060
1	1566	2061
1	1580	2062
1	1581	2063
1	1580	2064
1	1577	2065
1	1571	2066
1	1567	2067
1	1564	2068
1	1557	2069
1	1556	2070
1	1557	2071
1	1556	2072
1	1556	2073
1	1555	2074
1	1554	2075
1	1550	2076
1	1553	2077
1	1555	2078
1	1555	2079
1	1581	2100
1	1589	2101
1	1596	2102
1	1598	2103
1	1608	2104
1	1617	2105
1	1629	2106
1	1639	2107
1	1647	2108
1	1656	2109
1	1660	2110
1	1661	2111
1	1662	2112
1	1660	2113
1	1657	2114
1	1651	2115
1	1644	2116
1	1641	2117
1	1633	2118
1	1626	2119
1	1619	2120
1	1607	2121
1	1605	2122
1	1597	2123
1	1597	2124
1	1598	2125
1	1602	2126
1	1607	2127
1	1611	2128
1	1620	2129
1	1629	2130
1	1633	2131
1	1638	2132
1	1639	2133
1	1650	2134
1	1661	2135
1	1676	2136
1	1694	2137
1	1705	2138
1	1710	2139
1	1671	2180
1	1674	2181
1	1685	2182
1	1686	2183
1	1684	2184
1	1679	2185
1	1674	2186
1	1671	2187
1	1668	2188
1	1669	2189
1	1669	2190
1	1671	2191
1	1672	2192
1	1667	2193
1	1671	2194
1	1670	2195
1	1669	2196
1	1669	2197
1	1660	2198
1	1651	2199
1	1712	2140
1	1707	2141
1	1704	2142
1	1704	2143
1	1700	2144
1	1699	2145
1	1700	2146
1	1700	2147
1	1700	2148
1	1700	2149
1	1700	2150
1	1700	2151
1	1701	2152
1	1697	2153
1	1697	2154
1	1692	2155
1	1688	2156
1	1688	2157
1	1688	2158
1	1691	2159
1	1698	2160
1	1709	2161
1	1715	2162
1	1715	2163
1	1721	2164
1	1723	2165
1	1724	2166
1	1729	2167
1	1724	2168
1	1717	2169
1	1712	2170
1	1707	2171
1	1703	2172
1	1695	2173
1	1686	2174
1	1681	2175
1	1677	2176
1	1676	2177
1	1669	2178
1	1669	2179
1	1639	2200
1	1634	2201
1	1632	2202
1	1629	2203
1	1634	2204
1	1634	2205
1	1636	2206
1	1638	2207
1	1628	2208
1	1617	2209
1	1607	2210
1	1595	2211
1	1590	2212
1	1581	2213
1	1575	2214
1	1571	2215
1	1568	2216
1	1566	2217
1	1567	2218
1	1568	2219
1	1570	2220
1	1571	2221
1	1571	2222
1	1564	2223
1	1559	2224
1	1555	2225
1	1553	2226
1	1548	2227
1	1542	2228
1	1535	2229
1	1530	2230
1	1529	2231
1	1525	2232
1	1518	2233
1	1513	2234
1	1506	2235
1	1505	2236
1	1505	2237
1	1510	2238
1	1519	2239
1	1529	2240
1	1537	2241
1	1542	2242
1	1554	2243
1	1549	2244
1	1555	2245
1	1555	2246
1	1556	2247
1	1551	2248
1	1547	2249
1	1544	2250
1	1542	2251
1	1542	2252
1	1536	2253
1	1530	2254
1	1526	2255
1	1517	2256
1	1508	2257
1	1500	2258
1	1492	2259
1	1490	2260
1	1494	2261
1	1494	2262
1	1495	2263
1	1500	2264
1	1505	2265
1	1513	2266
1	1523	2267
1	1525	2268
1	1529	2269
1	1531	2270
1	1533	2271
1	1536	2272
1	1533	2273
1	1534	2274
1	1535	2275
1	1539	2276
1	1543	2277
1	1544	2278
1	1542	2279
1	1542	2280
1	1539	2281
1	1535	2282
1	1528	2283
1	1528	2284
1	1526	2285
1	1528	2286
1	1530	2287
1	1529	2288
1	1529	2289
1	1529	2290
1	1527	2291
1	1521	2292
1	1513	2293
1	1504	2294
1	1501	2295
1	1494	2296
1	1494	2297
1	1492	2298
1	1494	2299
1	1503	2300
1	1513	2301
1	1529	2302
1	1538	2303
1	1544	2304
1	1550	2305
1	1552	2306
1	1548	2307
1	1544	2308
1	1544	2309
1	1542	2310
1	1539	2311
1	1538	2312
1	1529	2313
1	1525	2314
1	1524	2315
1	1521	2316
1	1524	2317
1	1518	2318
1	1515	2319
1	1507	2340
1	1503	2341
1	1503	2342
1	1500	2343
1	1501	2344
1	1503	2345
1	1511	2346
1	1513	2347
1	1525	2348
1	1537	2349
1	1548	2350
1	1557	2351
1	1571	2352
1	1577	2353
1	1580	2354
1	1580	2355
1	1577	2356
1	1572	2357
1	1566	2358
1	1564	2359
1	1556	2360
1	1554	2361
1	1553	2362
1	1553	2363
1	1553	2364
1	1553	2365
1	1555	2366
1	1558	2367
1	1563	2368
1	1567	2369
1	1564	2370
1	1567	2371
1	1566	2372
1	1567	2373
1	1571	2374
1	1570	2375
1	1566	2376
1	1555	2377
1	1549	2378
1	1544	2379
1	1535	2360
1	1529	2361
1	1528	2362
1	1518	2363
1	1516	2364
1	1512	2365
1	1508	2366
1	1513	2367
1	1515	2368
1	1518	2369
1	1524	2370
1	1530	2371
1	1533	2372
1	1543	2373
1	1555	2374
1	1556	2375
1	1559	2376
1	1562	2377
1	1557	2378
1	1556	2379
1	1555	2400
1	1555	2401
1	1555	2402
1	1551	2403
1	1550	2404
1	1544	2405
1	1544	2406
1	1537	2407
1	1535	2408
1	1533	2409
1	1533	2410
1	1539	2411
1	1544	2412
1	1550	2413
1	1553	2414
1	1553	2415
1	1555	2416
1	1557	2417
1	1559	2418
1	1562	2419
1	1561	2400
1	1562	2401
1	1557	2402
1	1555	2403
1	1556	2404
1	1555	2405
1	1557	2406
1	1564	2407
1	1566	2408
1	1567	2409
1	1564	2410
1	1567	2411
1	1569	2412
1	1571	2413
1	1572	2414
1	1569	2415
1	1566	2416
1	1556	2417
1	1555	2418
1	1559	2419
1	1562	2420
1	1567	2421
1	1569	2422
1	1566	2423
1	1561	2424
1	1558	2425
1	1564	2426
1	1571	2427
1	1581	2428
1	1591	2429
1	1594	2430
1	1592	2431
1	1583	2432
1	1575	2433
1	1567	2434
1	1557	2435
1	1549	2436
1	1544	2437
1	1536	2438
1	1531	2439
1	1592	2460
1	1595	2461
1	1598	2462
1	1603	2463
1	1607	2464
1	1609	2465
1	1607	2466
1	1607	2467
1	1599	2468
1	1589	2469
1	1581	2470
1	1573	2471
1	1567	2472
1	1559	2473
1	1555	2474
1	1553	2475
1	1549	2476
1	1539	2477
1	1537	2478
1	1541	2479
1	1526	2440
1	1529	2441
1	1528	2442
1	1533	2443
1	1543	2444
1	1553	2445
1	1557	2446
1	1562	2447
1	1571	2448
1	1578	2449
1	1581	2450
1	1591	2451
1	1594	2452
1	1596	2453
1	1593	2454
1	1592	2455
1	1593	2456
1	1589	2457
1	1589	2458
1	1586	2459
1	1542	2480
1	1546	2481
1	1553	2482
1	1555	2483
1	1559	2484
1	1566	2485
1	1571	2486
1	1575	2487
1	1580	2488
1	1582	2489
1	1587	2490
1	1593	2491
1	1593	2492
1	1597	2493
1	1602	2494
1	1602	2495
1	1605	2496
1	1607	2497
1	1607	2498
1	1607	2499
1	1604	2500
1	1603	2501
1	1600	2502
1	1595	2503
1	1593	2504
1	1594	2505
1	1592	2506
1	1589	2507
1	1589	2508
1	1593	2509
1	1595	2510
1	1600	2511
1	1605	2512
1	1606	2513
1	1607	2514
1	1605	2515
1	1603	2516
1	1599	2517
1	1594	2518
1	1589	2519
1	1585	2520
1	1582	2521
1	1579	2522
1	1580	2523
1	1584	2524
1	1590	2525
1	1603	2526
1	1616	2527
1	1623	2528
1	1628	2529
1	1629	2530
1	1629	2531
1	1632	2532
1	1628	2533
1	1625	2534
1	1619	2535
1	1616	2536
1	1606	2537
1	1597	2538
1	1593	2539
1	1585	2540
1	1582	2541
1	1576	2542
1	1580	2543
1	1579	2544
1	1574	2545
1	1581	2546
1	1575	2547
1	1564	2548
1	1564	2549
1	1561	2550
1	1559	2551
1	1557	2552
1	1556	2553
1	1556	2554
1	1555	2555
1	1555	2556
1	1555	2557
1	1555	2558
1	1557	2559
1	1615	2600
1	1619	2601
1	1623	2602
1	1620	2603
1	1613	2604
1	1607	2605
1	1604	2606
1	1600	2607
1	1598	2608
1	1599	2609
1	1600	2610
1	1602	2611
1	1595	2612
1	1593	2613
1	1596	2614
1	1595	2615
1	1602	2616
1	1607	2617
1	1607	2618
1	1610	2619
1	1548	2580
1	1543	2581
1	1535	2582
1	1533	2583
1	1532	2584
1	1536	2585
1	1541	2586
1	1549	2587
1	1554	2588
1	1557	2589
1	1560	2590
1	1562	2591
1	1568	2592
1	1577	2593
1	1584	2594
1	1594	2595
1	1600	2596
1	1600	2597
1	1607	2598
1	1611	2599
1	1566	2560
1	1568	2561
1	1567	2562
1	1566	2563
1	1564	2564
1	1566	2565
1	1571	2566
1	1574	2567
1	1581	2568
1	1594	2569
1	1607	2570
1	1615	2571
1	1625	2572
1	1625	2573
1	1618	2574
1	1607	2575
1	1594	2576
1	1580	2577
1	1566	2578
1	1555	2579
1	1677	2640
1	1712	2641
1	1752	2642
1	1786	2643
1	1823	2644
1	1852	2645
1	1880	2646
1	1904	2647
1	1923	2648
1	1945	2649
1	1963	2650
1	1986	2651
1	2001	2652
1	2018	2653
1	2041	2654
1	2065	2655
1	2091	2656
1	2112	2657
1	2133	2658
1	2157	2659
1	1614	2620
1	1620	2621
1	1625	2622
1	1625	2623
1	1620	2624
1	1618	2625
1	1618	2626
1	1607	2627
1	1597	2628
1	1589	2629
1	1578	2630
1	1567	2631
1	1562	2632
1	1559	2633
1	1557	2634
1	1560	2635
1	1572	2636
1	1586	2637
1	1616	2638
1	1646	2639
1	2177	2660
1	2193	2661
1	2210	2662
1	2219	2663
1	2215	2664
1	2210	2665
1	2191	2666
1	2166	2667
1	2129	2668
1	2079	2669
1	2025	2670
1	1965	2671
1	1903	2672
1	1847	2673
1	1791	2674
1	1744	2675
1	1700	2676
1	1665	2677
1	1633	2678
1	1607	2679
1	1607	2700
1	1605	2701
1	1605	2702
1	1603	2703
1	1596	2704
1	1592	2705
1	1589	2706
1	1586	2707
1	1582	2708
1	1581	2709
1	1578	2710
1	1575	2711
1	1577	2712
1	1582	2713
1	1595	2714
1	1611	2715
1	1630	2716
1	1638	2717
1	1652	2718
1	1668	2719
1	1584	2680
1	1563	2681
1	1549	2682
1	1541	2683
1	1541	2684
1	1547	2685
1	1555	2686
1	1555	2687
1	1560	2688
1	1566	2689
1	1575	2690
1	1583	2691
1	1593	2692
1	1595	2693
1	1598	2694
1	1605	2695
1	1607	2696
1	1610	2697
1	1607	2698
1	1607	2699
1	1677	2720
1	1684	2721
1	1687	2722
1	1680	2723
1	1670	2724
1	1659	2725
1	1649	2726
1	1643	2727
1	1642	2728
1	1646	2729
1	1647	2730
1	1656	2731
1	1651	2732
1	1649	2733
1	1647	2734
1	1646	2735
1	1643	2736
1	1642	2737
1	1638	2738
1	1636	2739
1	1636	2740
1	1629	2741
1	1623	2742
1	1620	2743
1	1618	2744
1	1616	2745
1	1616	2746
1	1618	2747
1	1620	2748
1	1629	2749
1	1629	2750
1	1634	2751
1	1631	2752
1	1629	2753
1	1625	2754
1	1623	2755
1	1629	2756
1	1626	2757
1	1630	2758
1	1634	2759
1	1645	2760
1	1652	2761
1	1655	2762
1	1661	2763
1	1672	2764
1	1682	2765
1	1686	2766
1	1686	2767
1	1683	2768
1	1674	2769
1	1674	2770
1	1673	2771
1	1673	2772
1	1668	2773
1	1663	2774
1	1665	2775
1	1670	2776
1	1662	2777
1	1660	2778
1	1659	2779
1	1656	2780
1	1657	2781
1	1658	2782
1	1658	2783
1	1658	2784
1	1657	2785
1	1657	2786
1	1656	2787
1	1654	2788
1	1649	2789
1	1651	2790
1	1653	2791
1	1654	2792
1	1660	2793
1	1665	2794
1	1673	2795
1	1681	2796
1	1694	2797
1	1698	2798
1	1712	2799
1	1713	2800
1	1714	2801
1	1715	2802
1	1713	2803
1	1712	2804
1	1713	2805
1	1710	2806
1	1701	2807
1	1697	2808
1	1688	2809
1	1686	2810
1	1685	2811
1	1685	2812
1	1686	2813
1	1692	2814
1	1700	2815
1	1706	2816
1	1711	2817
1	1713	2818
1	1713	2819
1	1681	2840
1	1685	2841
1	1685	2842
1	1695	2843
1	1699	2844
1	1708	2845
1	1715	2846
1	1724	2847
1	1735	2848
1	1738	2849
1	1744	2850
1	1749	2851
1	1747	2852
1	1751	2853
1	1756	2854
1	1760	2855
1	1761	2856
1	1754	2857
1	1751	2858
1	1747	2859
1	1715	2820
1	1714	2821
1	1708	2822
1	1701	2823
1	1697	2824
1	1691	2825
1	1692	2826
1	1697	2827
1	1700	2828
1	1710	2829
1	1713	2830
1	1721	2831
1	1724	2832
1	1725	2833
1	1724	2834
1	1714	2835
1	1710	2836
1	1692	2837
1	1684	2838
1	1679	2839
1	1749	2860
1	1750	2861
1	1754	2862
1	1757	2863
1	1762	2864
1	1764	2865
1	1770	2866
1	1775	2867
1	1783	2868
1	1791	2869
1	1796	2870
1	1803	2871
1	1811	2872
1	1808	2873
1	1800	2874
1	1796	2875
1	1793	2876
1	1792	2877
1	1794	2878
1	1798	2879
1	1803	2880
1	1809	2881
1	1809	2882
1	1811	2883
1	1811	2884
1	1809	2885
1	1809	2886
1	1811	2887
1	1809	2888
1	1801	2889
1	1792	2890
1	1789	2891
1	1788	2892
1	1786	2893
1	1783	2894
1	1785	2895
1	1790	2896
1	1790	2897
1	1796	2898
1	1803	2899
1	1811	2900
1	1813	2901
1	1814	2902
1	1813	2903
1	1809	2904
1	1809	2905
1	1811	2906
1	1809	2907
1	1809	2908
1	1808	2909
1	1800	2910
1	1798	2911
1	1791	2912
1	1782	2913
1	1777	2914
1	1769	2915
1	1768	2916
1	1767	2917
1	1764	2918
1	1760	2919
1	1756	2920
1	1755	2921
1	1752	2922
1	1750	2923
1	1746	2924
1	1742	2925
1	1742	2926
1	1741	2927
1	1739	2928
1	1739	2929
1	1741	2930
1	1742	2931
1	1746	2932
1	1744	2933
1	1747	2934
1	1750	2935
1	1750	2936
1	1746	2937
1	1741	2938
1	1738	2939
1	1634	2960
1	1625	2961
1	1628	2962
1	1621	2963
1	1617	2964
1	1609	2965
1	1607	2966
1	1600	2967
1	1597	2968
1	1596	2969
1	1598	2970
1	1598	2971
1	1592	2972
1	1585	2973
1	1580	2974
1	1573	2975
1	1567	2976
1	1569	2977
1	1565	2978
1	1559	2979
1	1730	2940
1	1726	2941
1	1719	2942
1	1708	2943
1	1697	2944
1	1688	2945
1	1686	2946
1	1684	2947
1	1681	2948
1	1680	2949
1	1681	2950
1	1687	2951
1	1686	2952
1	1683	2953
1	1680	2954
1	1679	2955
1	1679	2956
1	1663	2957
1	1656	2958
1	1641	2959
1	1566	2980
1	1576	2981
1	1584	2982
1	1593	2983
1	1600	2984
1	1607	2985
1	1608	2986
1	1604	2987
1	1598	2988
1	1592	2989
1	1585	2990
1	1580	2991
1	1575	2992
1	1569	2993
1	1566	2994
1	1564	2995
1	1566	2996
1	1571	2997
1	1567	2998
1	1569	2999
1	1573	3000
1	1581	3001
1	1587	3002
1	1593	3003
1	1596	3004
1	1598	3005
1	1600	3006
1	1606	3007
1	1607	3008
1	1607	3009
1	1603	3010
1	1602	3011
1	1597	3012
1	1592	3013
1	1584	3014
1	1581	3015
1	1579	3016
1	1570	3017
1	1569	3018
1	1575	3019
1	1575	3020
1	1572	3021
1	1574	3022
1	1571	3023
1	1571	3024
1	1575	3025
1	1579	3026
1	1581	3027
1	1582	3028
1	1584	3029
1	1585	3030
1	1587	3031
1	1581	3032
1	1581	3033
1	1581	3034
1	1579	3035
1	1579	3036
1	1581	3037
1	1581	3038
1	1581	3039
1	1583	3040
1	1581	3041
1	1581	3042
1	1587	3043
1	1589	3044
1	1594	3045
1	1598	3046
1	1603	3047
1	1605	3048
1	1602	3049
1	1600	3050
1	1595	3051
1	1593	3052
1	1593	3053
1	1593	3054
1	1593	3055
1	1599	3056
1	1598	3057
1	1598	3058
1	1602	3059
1	1606	3060
1	1607	3061
1	1606	3062
1	1607	3063
1	1607	3064
1	1610	3065
1	1612	3066
1	1621	3067
1	1621	3068
1	1622	3069
1	1624	3070
1	1625	3071
1	1625	3072
1	1620	3073
1	1611	3074
1	1599	3075
1	1592	3076
1	1577	3077
1	1567	3078
1	1566	3079
1	1589	3100
1	1589	3101
1	1590	3102
1	1595	3103
1	1603	3104
1	1610	3105
1	1619	3106
1	1618	3107
1	1621	3108
1	1623	3109
1	1625	3110
1	1629	3111
1	1639	3112
1	1647	3113
1	1652	3114
1	1660	3115
1	1668	3116
1	1669	3117
1	1670	3118
1	1662	3119
1	1567	3080
1	1571	3081
1	1580	3082
1	1584	3083
1	1593	3084
1	1598	3085
1	1603	3086
1	1607	3087
1	1612	3088
1	1616	3089
1	1618	3090
1	1616	3091
1	1607	3092
1	1602	3093
1	1595	3094
1	1592	3095
1	1589	3096
1	1593	3097
1	1585	3098
1	1592	3099
1	1660	3120
1	1652	3121
1	1643	3122
1	1634	3123
1	1626	3124
1	1620	3125
1	1610	3126
1	1608	3127
1	1605	3128
1	1599	3129
1	1600	3130
1	1600	3131
1	1600	3132
1	1599	3133
1	1598	3134
1	1596	3135
1	1599	3136
1	1594	3137
1	1597	3138
1	1602	3139
1	1604	3140
1	1605	3141
1	1607	3142
1	1616	3143
1	1620	3144
1	1620	3145
1	1620	3146
1	1620	3147
1	1616	3148
1	1618	3149
1	1621	3150
1	1626	3151
1	1624	3152
1	1625	3153
1	1624	3154
1	1621	3155
1	1612	3156
1	1607	3157
1	1600	3158
1	1595	3159
1	1602	3160
1	1607	3161
1	1615	3162
1	1629	3163
1	1635	3164
1	1647	3165
1	1656	3166
1	1659	3167
1	1658	3168
1	1651	3169
1	1644	3170
1	1634	3171
1	1628	3172
1	1630	3173
1	1629	3174
1	1631	3175
1	1631	3176
1	1625	3177
1	1625	3178
1	1628	3179
1	1628	3180
1	1632	3181
1	1629	3182
1	1631	3183
1	1634	3184
1	1634	3185
1	1634	3186
1	1634	3187
1	1626	3188
1	1622	3189
1	1616	3190
1	1616	3191
1	1615	3192
1	1611	3193
1	1609	3194
1	1607	3195
1	1608	3196
1	1607	3197
1	1610	3198
1	1616	3199
1	1619	3200
1	1625	3201
1	1634	3202
1	1638	3203
1	1638	3204
1	1641	3205
1	1638	3206
1	1636	3207
1	1634	3208
1	1633	3209
1	1633	3210
1	1634	3211
1	1632	3212
1	1634	3213
1	1644	3214
1	1652	3215
1	1656	3216
1	1661	3217
1	1658	3218
1	1647	3219
1	1612	3240
1	1600	3241
1	1589	3242
1	1581	3243
1	1570	3244
1	1562	3245
1	1555	3246
1	1556	3247
1	1566	3248
1	1570	3249
1	1575	3250
1	1580	3251
1	1583	3252
1	1589	3253
1	1594	3254
1	1599	3255
1	1602	3256
1	1596	3257
1	1593	3258
1	1585	3259
1	1639	3220
1	1634	3221
1	1631	3222
1	1626	3223
1	1626	3224
1	1629	3225
1	1634	3226
1	1634	3227
1	1643	3228
1	1649	3229
1	1656	3230
1	1660	3231
1	1674	3232
1	1674	3233
1	1672	3234
1	1665	3235
1	1660	3236
1	1648	3237
1	1641	3238
1	1633	3239
1	1580	3260
1	1569	3261
1	1568	3262
1	1566	3263
1	1566	3264
1	1578	3265
1	1581	3266
1	1587	3267
1	1594	3268
1	1602	3269
1	1607	3270
1	1610	3271
1	1612	3272
1	1616	3273
1	1620	3274
1	1616	3275
1	1613	3276
1	1621	3277
1	1622	3278
1	1623	3279
1	1629	3280
1	1629	3281
1	1629	3282
1	1629	3283
1	1630	3284
1	1631	3285
1	1629	3286
1	1622	3287
1	1621	3288
1	1618	3289
1	1612	3290
1	1607	3291
1	1607	3292
1	1602	3293
1	1598	3294
1	1595	3295
1	1593	3296
1	1592	3297
1	1594	3298
1	1594	3299
1	1595	3300
1	1593	3301
1	1584	3302
1	1581	3303
1	1579	3304
1	1574	3305
1	1571	3306
1	1577	3307
1	1581	3308
1	1582	3309
1	1583	3310
1	1585	3311
1	1585	3312
1	1584	3313
1	1584	3314
1	1586	3315
1	1585	3316
1	1581	3317
1	1583	3318
1	1590	3319
1	1598	3320
1	1603	3321
1	1609	3322
1	1607	3323
1	1603	3324
1	1595	3325
1	1593	3326
1	1590	3327
1	1590	3328
1	1587	3329
1	1587	3330
1	1589	3331
1	1592	3332
1	1593	3333
1	1597	3334
1	1603	3335
1	1608	3336
1	1625	3337
1	1634	3338
1	1648	3339
1	1664	3340
1	1692	3341
1	1723	3342
1	1742	3343
1	1773	3344
1	1802	3345
1	1832	3346
1	1862	3347
1	1890	3348
1	1920	3349
1	1949	3350
1	1974	3351
1	2005	3352
1	2029	3353
1	2052	3354
1	2074	3355
1	2101	3356
1	2119	3357
1	2143	3358
1	2166	3359
1	2185	3360
1	2205	3361
1	2210	3362
1	2211	3363
1	2210	3364
1	2202	3365
1	2181	3366
1	2157	3367
1	2115	3368
1	2066	3369
1	2004	3370
1	1943	3371
1	1873	3372
1	1812	3373
1	1751	3374
1	1699	3375
1	1658	3376
1	1619	3377
1	1593	3378
1	1574	3379
1	1559	3380
1	1546	3381
1	1542	3382
1	1530	3383
1	1525	3384
1	1519	3385
1	1516	3386
1	1512	3387
1	1512	3388
1	1517	3389
1	1524	3390
1	1531	3391
1	1533	3392
1	1540	3393
1	1543	3394
1	1545	3395
1	1546	3396
1	1555	3397
1	1555	3398
1	1548	3399
1	1554	3400
1	1554	3401
1	1555	3402
1	1557	3403
1	1564	3404
1	1572	3405
1	1580	3406
1	1580	3407
1	1580	3408
1	1580	3409
1	1574	3410
1	1572	3411
1	1577	3412
1	1572	3413
1	1569	3414
1	1564	3415
1	1557	3416
1	1555	3417
1	1556	3418
1	1559	3419
1	1566	3420
1	1579	3421
1	1581	3422
1	1591	3423
1	1600	3424
1	1607	3425
1	1610	3426
1	1621	3427
1	1625	3428
1	1629	3429
1	1635	3430
1	1643	3431
1	1651	3432
1	1657	3433
1	1660	3434
1	1656	3435
1	1648	3436
1	1634	3437
1	1623	3438
1	1613	3439
1	1607	3440
1	1603	3441
1	1597	3442
1	1598	3443
1	1593	3444
1	1587	3445
1	1580	3446
1	1579	3447
1	1580	3448
1	1580	3449
1	1581	3450
1	1584	3451
1	1584	3452
1	1586	3453
1	1593	3454
1	1600	3455
1	1602	3456
1	1604	3457
1	1603	3458
1	1598	3459
1	1603	3460
1	1602	3461
1	1600	3462
1	1600	3463
1	1598	3464
1	1596	3465
1	1597	3466
1	1595	3467
1	1597	3468
1	1603	3469
1	1605	3470
1	1605	3471
1	1611	3472
1	1611	3473
1	1616	3474
1	1620	3475
1	1623	3476
1	1626	3477
1	1626	3478
1	1623	3479
1	1620	3480
1	1615	3481
1	1607	3482
1	1603	3483
1	1602	3484
1	1602	3485
1	1602	3486
1	1607	3487
1	1608	3488
1	1610	3489
1	1613	3490
1	1613	3491
1	1611	3492
1	1607	3493
1	1607	3494
1	1604	3495
1	1602	3496
1	1596	3497
1	1595	3498
1	1600	3499
1	1607	3500
1	1611	3501
1	1626	3502
1	1634	3503
1	1638	3504
1	1639	3505
1	1637	3506
1	1634	3507
1	1634	3508
1	1638	3509
1	1646	3510
1	1648	3511
1	1646	3512
1	1645	3513
1	1647	3514
1	1648	3515
1	1652	3516
1	1660	3517
1	1661	3518
1	1661	3519
1	1662	3520
1	1661	3521
1	1662	3522
1	1660	3523
1	1661	3524
1	1661	3525
1	1665	3526
1	1661	3527
1	1661	3528
1	1659	3529
1	1652	3530
1	1647	3531
1	1654	3532
1	1659	3533
1	1661	3534
1	1668	3535
1	1674	3536
1	1677	3537
1	1672	3538
1	1662	3539
1	1652	3540
1	1647	3541
1	1643	3542
1	1638	3543
1	1642	3544
1	1645	3545
1	1647	3546
1	1655	3547
1	1661	3548
1	1671	3549
1	1679	3550
1	1690	3551
1	1697	3552
1	1705	3553
1	1710	3554
1	1712	3555
1	1712	3556
1	1710	3557
1	1705	3558
1	1698	3559
1	1690	3560
1	1686	3561
1	1688	3562
1	1686	3563
1	1687	3564
1	1687	3565
1	1692	3566
1	1699	3567
1	1708	3568
1	1712	3569
1	1724	3570
1	1736	3571
1	1734	3572
1	1738	3573
1	1738	3574
1	1739	3575
1	1738	3576
1	1744	3577
1	1738	3578
1	1734	3579
1	1725	3580
1	1719	3581
1	1715	3582
1	1712	3583
1	1718	3584
1	1719	3585
1	1720	3586
1	1712	3587
1	1707	3588
1	1700	3589
1	1689	3590
1	1687	3591
1	1694	3592
1	1695	3593
1	1699	3594
1	1701	3595
1	1707	3596
1	1710	3597
1	1712	3598
1	1712	3599
1	1711	3600
1	1710	3601
1	1710	3602
1	1713	3603
1	1717	3604
1	1724	3605
1	1727	3606
1	1732	3607
1	1730	3608
1	1726	3609
1	1722	3610
1	1721	3611
1	1723	3612
1	1724	3613
1	1728	3614
1	1726	3615
1	1721	3616
1	1710	3617
1	1700	3618
1	1696	3619
1	1691	3620
1	1688	3621
1	1693	3622
1	1693	3623
1	1695	3624
1	1695	3625
1	1697	3626
1	1695	3627
1	1692	3628
1	1687	3629
1	1683	3630
1	1679	3631
1	1663	3632
1	1654	3633
1	1639	3634
1	1629	3635
1	1617	3636
1	1612	3637
1	1607	3638
1	1607	3639
1	1607	3640
1	1607	3641
1	1605	3642
1	1598	3643
1	1597	3644
1	1594	3645
1	1586	3646
1	1581	3647
1	1574	3648
1	1570	3649
1	1566	3650
1	1564	3651
1	1555	3652
1	1554	3653
1	1550	3654
1	1548	3655
1	1553	3656
1	1551	3657
1	1551	3658
1	1551	3659
1	1553	3660
1	1551	3661
1	1544	3662
1	1542	3663
1	1542	3664
1	1541	3665
1	1542	3666
1	1544	3667
1	1540	3668
1	1535	3669
1	1529	3670
1	1524	3671
1	1517	3672
1	1513	3673
1	1511	3674
1	1508	3675
1	1506	3676
1	1501	3677
1	1503	3678
1	1503	3679
1	1500	3680
1	1495	3681
1	1487	3682
1	1479	3683
1	1474	3684
1	1465	3685
1	1458	3686
1	1453	3687
1	1454	3688
1	1453	3689
1	1454	3690
1	1455	3691
1	1454	3692
1	1456	3693
1	1461	3694
1	1463	3695
1	1468	3696
1	1476	3697
1	1476	3698
1	1476	3699
1	1485	3700
1	1489	3701
1	1497	3702
1	1501	3703
1	1504	3704
1	1503	3705
1	1502	3706
1	1492	3707
1	1485	3708
1	1482	3709
1	1479	3710
1	1476	3711
1	1476	3712
1	1476	3713
1	1472	3714
1	1471	3715
1	1468	3716
1	1469	3717
1	1472	3718
1	1475	3719
1	1473	3720
1	1476	3721
1	1474	3722
1	1474	3723
1	1472	3724
1	1472	3725
1	1472	3726
1	1467	3727
1	1461	3728
1	1454	3729
1	1451	3730
1	1450	3731
1	1449	3732
1	1445	3733
1	1448	3734
1	1450	3735
1	1452	3736
1	1450	3737
1	1449	3738
1	1450	3739
1	1451	3740
1	1455	3741
1	1459	3742
1	1463	3743
1	1456	3744
1	1462	3745
1	1462	3746
1	1464	3747
1	1467	3748
1	1473	3749
1	1477	3750
1	1481	3751
1	1477	3752
1	1481	3753
1	1481	3754
1	1479	3755
1	1477	3756
1	1468	3757
1	1463	3758
1	1456	3759
1	1455	3760
1	1450	3761
1	1449	3762
1	1446	3763
1	1448	3764
1	1447	3765
1	1449	3766
1	1443	3767
1	1438	3768
1	1433	3769
1	1424	3770
1	1423	3771
1	1419	3772
1	1415	3773
1	1413	3774
1	1418	3775
1	1422	3776
1	1423	3777
1	1422	3778
1	1422	3779
1	1441	3800
1	1443	3801
1	1441	3802
1	1442	3803
1	1441	3804
1	1443	3805
1	1445	3806
1	1445	3807
1	1447	3808
1	1449	3809
1	1451	3810
1	1456	3811
1	1454	3812
1	1454	3813
1	1452	3814
1	1449	3815
1	1449	3816
1	1445	3817
1	1438	3818
1	1433	3819
1	1419	3780
1	1423	3781
1	1420	3782
1	1422	3783
1	1424	3784
1	1426	3785
1	1437	3786
1	1449	3787
1	1456	3788
1	1463	3789
1	1466	3790
1	1468	3791
1	1466	3792
1	1463	3793
1	1463	3794
1	1459	3795
1	1461	3796
1	1454	3797
1	1451	3798
1	1449	3799
1	1432	3820
1	1429	3821
1	1428	3822
1	1430	3823
1	1429	3824
1	1430	3825
1	1431	3826
1	1424	3827
1	1422	3828
1	1416	3829
1	1410	3830
1	1411	3831
1	1409	3832
1	1409	3833
1	1410	3834
1	1418	3835
1	1428	3836
1	1438	3837
1	1450	3838
1	1458	3839
1	1462	3840
1	1469	3841
1	1472	3842
1	1469	3843
1	1463	3844
1	1453	3845
1	1450	3846
1	1438	3847
1	1435	3848
1	1426	3849
1	1424	3850
1	1424	3851
1	1424	3852
1	1423	3853
1	1428	3854
1	1432	3855
1	1437	3856
1	1437	3857
1	1440	3858
1	1441	3859
1	1441	3860
1	1445	3861
1	1448	3862
1	1448	3863
1	1447	3864
1	1449	3865
1	1450	3866
1	1455	3867
1	1459	3868
1	1462	3869
1	1462	3870
1	1463	3871
1	1454	3872
1	1450	3873
1	1445	3874
1	1435	3875
1	1427	3876
1	1425	3877
1	1424	3878
1	1420	3879
1	1423	3880
1	1423	3881
1	1423	3882
1	1423	3883
1	1424	3884
1	1427	3885
1	1433	3886
1	1434	3887
1	1434	3888
1	1436	3889
1	1437	3890
1	1437	3891
1	1438	3892
1	1437	3893
1	1438	3894
1	1447	3895
1	1453	3896
1	1461	3897
1	1468	3898
1	1468	3899
1	1467	3900
1	1473	3901
1	1474	3902
1	1472	3903
1	1467	3904
1	1464	3905
1	1466	3906
1	1466	3907
1	1465	3908
1	1462	3909
1	1454	3910
1	1445	3911
1	1436	3912
1	1431	3913
1	1425	3914
1	1422	3915
1	1419	3916
1	1413	3917
1	1411	3918
1	1407	3919
1	1409	3920
1	1413	3921
1	1420	3922
1	1424	3923
1	1424	3924
1	1424	3925
1	1430	3926
1	1436	3927
1	1440	3928
1	1441	3929
1	1440	3930
1	1437	3931
1	1428	3932
1	1422	3933
1	1413	3934
1	1411	3935
1	1409	3936
1	1409	3937
1	1410	3938
1	1410	3939
1	1415	3940
1	1420	3941
1	1422	3942
1	1424	3943
1	1425	3944
1	1424	3945
1	1424	3946
1	1418	3947
1	1414	3948
1	1411	3949
1	1409	3950
1	1407	3951
1	1400	3952
1	1395	3953
1	1391	3954
1	1384	3955
1	1394	3956
1	1397	3957
1	1400	3958
1	1405	3959
1	1407	3960
1	1409	3961
1	1407	3962
1	1408	3963
1	1409	3964
1	1405	3965
1	1399	3966
1	1398	3967
1	1384	3968
1	1382	3969
1	1374	3970
1	1374	3971
1	1376	3972
1	1376	3973
1	1377	3974
1	1383	3975
1	1384	3976
1	1384	3977
1	1394	3978
1	1393	3979
1	1395	3980
1	1398	3981
1	1413	3982
1	1424	3983
1	1434	3984
1	1438	3985
1	1445	3986
1	1450	3987
1	1452	3988
1	1459	3989
1	1461	3990
1	1459	3991
1	1450	3992
1	1443	3993
1	1438	3994
1	1436	3995
1	1428	3996
1	1425	3997
1	1417	3998
1	1405	3999
1	1402	4000
1	1398	4001
1	1392	4002
1	1384	4003
1	1384	4004
1	1392	4005
1	1394	4006
1	1391	4006
1	1395	4008
1	1399	4009
1	1400	4010
1	1407	4011
1	1412	4012
1	1409	4013
1	1400	4014
1	1393	4014
1	1379	4016
1	1372	4017
1	1370	4018
1	1371	4019
1	1372	4020
1	1374	4021
1	1376	4022
1	1379	4022
1	1384	4024
1	1397	4025
1	1410	4026
1	1431	4027
1	1449	4028
1	1467	4029
1	1491	4030
1	1521	4030
1	1548	4032
1	1580	4033
1	1607	4034
1	1634	4035
1	1658	4036
1	1672	4037
1	1688	4038
1	1709	4038
1	1733	4040
1	1762	4041
1	1796	4042
1	1836	4043
1	1862	4044
1	1901	4045
1	1932	4046
1	1959	4046
1	1978	4048
1	1998	4049
1	2014	4050
1	2029	4051
1	2038	4052
1	2050	4053
1	2057	4054
1	2063	4054
1	2066	4056
1	2061	4057
1	2045	4058
1	2019	4059
1	1986	4060
1	1937	4061
1	1880	4062
1	1816	4062
1	1742	4064
1	1679	4065
1	1620	4066
1	1563	4067
1	1518	4068
1	1476	4069
1	1440	4070
1	1414	4070
1	1398	4072
1	1373	4073
1	1358	4074
1	1346	4075
1	1340	4076
1	1336	4077
1	1337	4078
1	1346	4078
1	1422	4100
1	1412	4101
1	1407	4102
1	1398	4103
1	1392	4104
1	1383	4105
1	1377	4106
1	1376	4107
1	1377	4108
1	1380	4109
1	1392	4110
1	1399	4111
1	1407	4112
1	1415	4113
1	1423	4114
1	1425	4115
1	1429	4116
1	1436	4117
1	1440	4118
1	1448	4119
1	1353	4080
1	1364	4081
1	1373	4082
1	1391	4083
1	1401	4084
1	1413	4085
1	1424	4086
1	1436	4086
1	1440	4088
1	1440	4089
1	1442	4090
1	1442	4091
1	1441	4092
1	1440	4093
1	1437	4094
1	1437	4094
1	1438	4096
1	1435	4097
1	1433	4098
1	1428	4099
1	1450	4120
1	1452	4121
1	1450	4122
1	1451	4123
1	1450	4124
1	1450	4125
1	1450	4126
1	1445	4127
1	1440	4128
1	1437	4129
1	1431	4130
1	1427	4131
1	1427	4132
1	1426	4133
1	1424	4134
1	1424	4135
1	1422	4136
1	1422	4137
1	1419	4138
1	1423	4139
1	1423	4140
1	1426	4141
1	1428	4142
1	1428	4143
1	1427	4144
1	1427	4145
1	1424	4146
1	1423	4147
1	1422	4148
1	1418	4149
1	1417	4150
1	1427	4151
1	1432	4152
1	1440	4153
1	1448	4154
1	1450	4155
1	1455	4156
1	1458	4157
1	1464	4158
1	1472	4159
1	1468	4180
1	1472	4181
1	1476	4182
1	1479	4183
1	1485	4184
1	1495	4185
1	1503	4186
1	1502	4187
1	1501	4188
1	1494	4189
1	1493	4190
1	1492	4191
1	1500	4192
1	1503	4193
1	1505	4194
1	1508	4195
1	1512	4196
1	1511	4197
1	1512	4198
1	1515	4199
1	1476	4160
1	1477	4161
1	1482	4162
1	1482	4163
1	1482	4164
1	1477	4165
1	1476	4166
1	1464	4167
1	1459	4168
1	1458	4169
1	1463	4170
1	1467	4171
1	1464	4172
1	1464	4173
1	1466	4174
1	1462	4175
1	1458	4176
1	1462	4177
1	1462	4178
1	1464	4179
1	1512	4200
1	1506	4201
1	1505	4202
1	1505	4203
1	1511	4204
1	1517	4205
1	1520	4206
1	1529	4207
1	1531	4208
1	1535	4209
1	1535	4210
1	1533	4211
1	1529	4212
1	1527	4213
1	1525	4214
1	1521	4215
1	1518	4216
1	1508	4217
1	1507	4218
1	1508	4219
1	1508	4220
1	1512	4221
1	1520	4222
1	1521	4223
1	1529	4224
1	1539	4225
1	1547	4226
1	1554	4227
1	1556	4228
1	1561	4229
1	1566	4230
1	1568	4231
1	1563	4232
1	1565	4233
1	1564	4234
1	1563	4235
1	1563	4236
1	1569	4237
1	1567	4238
1	1572	4239
1	1575	4240
1	1581	4241
1	1580	4242
1	1582	4243
1	1592	4244
1	1602	4245
1	1606	4246
1	1611	4247
1	1613	4248
1	1617	4249
1	1620	4250
1	1623	4251
1	1628	4252
1	1630	4253
1	1634	4254
1	1641	4255
1	1649	4256
1	1646	4257
1	1642	4258
1	1638	4259
1	1634	4260
1	1629	4261
1	1620	4262
1	1620	4263
1	1626	4264
1	1632	4265
1	1637	4266
1	1648	4267
1	1651	4268
1	1648	4269
1	1641	4270
1	1634	4271
1	1628	4272
1	1625	4273
1	1628	4274
1	1634	4275
1	1639	4276
1	1639	4277
1	1644	4278
1	1651	4279
1	1652	4280
1	1658	4281
1	1665	4282
1	1669	4283
1	1671	4284
1	1674	4285
1	1675	4286
1	1675	4287
1	1675	4288
1	1675	4289
1	1674	4290
1	1674	4291
1	1665	4292
1	1660	4293
1	1654	4294
1	1647	4295
1	1644	4296
1	1647	4297
1	1648	4298
1	1652	4299
1	1659	4300
1	1668	4301
1	1679	4302
1	1686	4303
1	1695	4304
1	1697	4305
1	1697	4306
1	1691	4307
1	1686	4308
1	1682	4309
1	1677	4310
1	1670	4311
1	1672	4312
1	1669	4313
1	1665	4314
1	1661	4315
1	1659	4316
1	1656	4317
1	1650	4318
1	1645	4319
1	1642	4320
1	1639	4321
1	1635	4322
1	1635	4323
1	1642	4324
1	1646	4325
1	1649	4326
1	1652	4327
1	1649	4328
1	1644	4329
1	1641	4330
1	1633	4331
1	1626	4332
1	1621	4333
1	1611	4334
1	1607	4335
1	1602	4336
1	1595	4337
1	1594	4338
1	1594	4339
1	1595	4340
1	1598	4341
1	1598	4342
1	1593	4343
1	1582	4344
1	1584	4345
1	1581	4346
1	1581	4347
1	1581	4348
1	1575	4349
1	1567	4350
1	1561	4351
1	1555	4352
1	1548	4353
1	1544	4354
1	1541	4355
1	1539	4356
1	1539	4357
1	1540	4358
1	1540	4359
1	1551	4360
1	1555	4361
1	1559	4362
1	1565	4363
1	1568	4364
1	1571	4365
1	1571	4366
1	1573	4367
1	1580	4368
1	1584	4369
1	1585	4370
1	1581	4371
1	1581	4372
1	1571	4373
1	1560	4374
1	1553	4375
1	1546	4376
1	1541	4377
1	1538	4378
1	1535	4379
1	1536	4380
1	1534	4381
1	1531	4382
1	1531	4383
1	1536	4384
1	1538	4385
1	1540	4386
1	1547	4387
1	1548	4388
1	1547	4389
1	1543	4390
1	1539	4391
1	1538	4392
1	1532	4393
1	1529	4394
1	1528	4395
1	1526	4396
1	1517	4397
1	1516	4398
1	1517	4399
1	1521	4400
1	1525	4401
1	1538	4402
1	1545	4403
1	1553	4404
1	1556	4405
1	1560	4406
1	1564	4407
1	1566	4408
1	1566	4409
1	1563	4410
1	1559	4411
1	1553	4412
1	1546	4413
1	1541	4414
1	1537	4415
1	1533	4416
1	1541	4417
1	1541	4418
1	1542	4419
1	1546	4420
1	1553	4421
1	1560	4422
1	1570	4423
1	1580	4424
1	1589	4425
1	1593	4426
1	1590	4427
1	1589	4428
1	1586	4429
1	1584	4430
1	1584	4431
1	1593	4432
1	1595	4433
1	1598	4434
1	1598	4435
1	1598	4436
1	1595	4437
1	1592	4438
1	1592	4439
1	1608	4480
1	1610	4481
1	1610	4482
1	1611	4483
1	1611	4484
1	1611	4485
1	1611	4486
1	1607	4487
1	1610	4488
1	1613	4489
1	1615	4490
1	1615	4491
1	1618	4492
1	1618	4493
1	1625	4494
1	1633	4495
1	1638	4496
1	1634	4497
1	1635	4498
1	1631	4499
1	1559	4460
1	1566	4461
1	1580	4462
1	1582	4463
1	1588	4464
1	1594	4465
1	1602	4466
1	1607	4467
1	1616	4468
1	1624	4469
1	1629	4470
1	1634	4471
1	1631	4472
1	1625	4473
1	1621	4474
1	1612	4475
1	1607	4476
1	1608	4477
1	1607	4478
1	1607	4479
1	1584	4440
1	1586	4441
1	1587	4442
1	1593	4443
1	1594	4444
1	1593	4445
1	1593	4446
1	1587	4447
1	1582	4448
1	1578	4449
1	1572	4450
1	1574	4451
1	1574	4452
1	1572	4453
1	1572	4454
1	1571	4455
1	1571	4456
1	1558	4457
1	1555	4458
1	1556	4459
1	1623	4500
1	1618	4501
1	1611	4502
1	1607	4503
1	1607	4504
1	1607	4505
1	1609	4506
1	1621	4507
1	1625	4508
1	1629	4509
1	1630	4510
1	1629	4511
1	1635	4512
1	1639	4513
1	1643	4514
1	1643	4515
1	1643	4516
1	1636	4517
1	1634	4518
1	1634	4519
1	1633	4520
1	1633	4521
1	1635	4522
1	1634	4523
1	1638	4524
1	1642	4525
1	1644	4526
1	1647	4527
1	1652	4528
1	1657	4529
1	1660	4530
1	1661	4531
1	1661	4532
1	1664	4533
1	1671	4534
1	1675	4535
1	1679	4536
1	1685	4537
1	1680	4538
1	1674	4539
1	1665	4540
1	1660	4541
1	1647	4542
1	1643	4543
1	1638	4544
1	1638	4545
1	1638	4546
1	1643	4547
1	1644	4548
1	1647	4549
1	1649	4550
1	1654	4551
1	1657	4552
1	1661	4553
1	1664	4554
1	1670	4555
1	1675	4556
1	1674	4557
1	1674	4558
1	1674	4559
1	1686	4580
1	1684	4581
1	1688	4582
1	1689	4583
1	1692	4584
1	1695	4585
1	1697	4586
1	1694	4587
1	1696	4588
1	1698	4589
1	1701	4590
1	1707	4591
1	1703	4592
1	1704	4593
1	1703	4594
1	1704	4595
1	1706	4596
1	1712	4597
1	1712	4598
1	1712	4599
1	1674	4560
1	1677	4561
1	1678	4562
1	1684	4563
1	1688	4564
1	1697	4565
1	1702	4566
1	1712	4567
1	1712	4568
1	1710	4569
1	1710	4570
1	1712	4571
1	1712	4572
1	1712	4573
1	1712	4574
1	1710	4575
1	1706	4576
1	1698	4577
1	1690	4578
1	1686	4579
1	1715	4600
1	1721	4601
1	1724	4602
1	1731	4603
1	1737	4604
1	1739	4605
1	1742	4606
1	1738	4607
1	1733	4608
1	1723	4609
1	1716	4610
1	1710	4611
1	1712	4612
1	1712	4613
1	1710	4614
1	1705	4615
1	1701	4616
1	1700	4617
1	1697	4618
1	1698	4619
1	1698	4620
1	1697	4621
1	1686	4622
1	1683	4623
1	1682	4624
1	1682	4625
1	1683	4626
1	1686	4627
1	1680	4628
1	1677	4629
1	1674	4630
1	1674	4631
1	1672	4632
1	1673	4633
1	1675	4634
1	1679	4635
1	1686	4636
1	1687	4637
1	1697	4638
1	1709	4639
1	1713	4640
1	1715	4641
1	1724	4642
1	1721	4643
1	1712	4644
1	1711	4645
1	1702	4646
1	1695	4647
1	1687	4648
1	1681	4649
1	1670	4650
1	1664	4651
1	1656	4652
1	1648	4653
1	1644	4654
1	1639	4655
1	1636	4656
1	1634	4657
1	1634	4658
1	1634	4659
1	1638	4660
1	1639	4661
1	1647	4662
1	1652	4663
1	1660	4664
1	1669	4665
1	1678	4666
1	1674	4667
1	1674	4668
1	1676	4669
1	1682	4670
1	1686	4671
1	1697	4672
1	1697	4673
1	1697	4674
1	1695	4675
1	1692	4676
1	1692	4677
1	1691	4678
1	1691	4679
1	1693	4680
1	1691	4681
1	1688	4682
1	1688	4683
1	1695	4684
1	1695	4685
1	1697	4686
1	1701	4687
1	1706	4688
1	1708	4689
1	1710	4690
1	1712	4691
1	1716	4692
1	1718	4693
1	1718	4694
1	1721	4695
1	1721	4696
1	1716	4697
1	1714	4698
1	1711	4699
1	1704	4700
1	1696	4701
1	1691	4702
1	1682	4703
1	1670	4704
1	1661	4705
1	1659	4706
1	1649	4707
1	1643	4708
1	1634	4709
1	1634	4710
1	1632	4711
1	1628	4712
1	1631	4713
1	1638	4714
1	1653	4715
1	1668	4716
1	1695	4717
1	1715	4718
1	1738	4719
1	1764	4720
1	1791	4721
1	1829	4722
1	1866	4723
1	1901	4724
1	1935	4725
1	1966	4726
1	1986	4727
1	2012	4728
1	2035	4729
1	2061	4730
1	2088	4731
1	2128	4732
1	2161	4733
1	2196	4734
1	2231	4735
1	2259	4736
1	2282	4737
1	2306	4738
1	2327	4739
1	2340	4740
1	2351	4741
1	2368	4742
1	2380	4743
1	2390	4744
1	2393	4745
1	2394	4746
1	2385	4747
1	2366	4748
1	2330	4749
1	2280	4750
1	2232	4751
1	2165	4752
1	2104	4753
1	2035	4754
1	1973	4755
1	1913	4756
1	1855	4757
1	1803	4758
1	1764	4759
1	1729	4760
1	1706	4761
1	1695	4762
1	1685	4763
1	1678	4764
1	1674	4765
1	1671	4766
1	1670	4767
1	1671	4768
1	1671	4769
1	1674	4770
1	1671	4771
1	1660	4772
1	1657	4773
1	1651	4774
1	1647	4775
1	1651	4776
1	1666	4777
1	1679	4778
1	1690	4779
1	1698	4780
1	1706	4781
1	1711	4782
1	1711	4783
1	1708	4784
1	1700	4785
1	1694	4786
1	1682	4787
1	1674	4788
1	1668	4789
1	1665	4790
1	1666	4791
1	1676	4792
1	1685	4793
1	1690	4794
1	1693	4795
1	1689	4796
1	1683	4797
1	1672	4798
1	1667	4799
1	1665	4800
1	1667	4801
1	1667	4802
1	1667	4803
1	1670	4804
1	1673	4805
1	1677	4806
1	1689	4807
1	1695	4808
1	1699	4809
1	1701	4810
1	1700	4811
1	1700	4812
1	1698	4813
1	1698	4814
1	1695	4815
1	1692	4816
1	1686	4817
1	1683	4818
1	1683	4819
1	1683	4820
1	1685	4821
1	1695	4822
1	1701	4823
1	1711	4824
1	1713	4825
1	1715	4826
1	1716	4827
1	1715	4828
1	1717	4829
1	1713	4830
1	1711	4831
1	1701	4832
1	1690	4833
1	1683	4834
1	1673	4835
1	1665	4836
1	1668	4837
1	1664	4838
1	1664	4839
1	1663	4840
1	1674	4841
1	1681	4842
1	1686	4843
1	1695	4844
1	1701	4845
1	1710	4846
1	1713	4847
1	1717	4848
1	1720	4849
1	1726	4850
1	1737	4851
1	1743	4852
1	1751	4853
1	1749	4854
1	1742	4855
1	1741	4856
1	1731	4857
1	1721	4858
1	1715	4859
1	1721	4900
1	1728	4901
1	1737	4902
1	1741	4903
1	1747	4904
1	1751	4905
1	1752	4906
1	1747	4907
1	1743	4908
1	1741	4909
1	1742	4910
1	1743	4911
1	1750	4912
1	1751	4913
1	1755	4914
1	1762	4915
1	1770	4916
1	1782	4917
1	1787	4918
1	1791	4919
1	1713	4860
1	1712	4861
1	1707	4862
1	1710	4863
1	1710	4864
1	1709	4865
1	1710	4866
1	1716	4867
1	1717	4868
1	1715	4869
1	1713	4870
1	1713	4871
1	1715	4872
1	1718	4873
1	1717	4874
1	1717	4875
1	1715	4876
1	1712	4877
1	1712	4878
1	1715	4879
1	1719	4880
1	1723	4881
1	1728	4882
1	1730	4883
1	1728	4884
1	1733	4885
1	1736	4886
1	1736	4887
1	1731	4888
1	1726	4889
1	1724	4890
1	1718	4891
1	1708	4892
1	1701	4893
1	1698	4894
1	1698	4895
1	1699	4896
1	1707	4897
1	1712	4898
1	1716	4899
1	1800	4920
1	1811	4921
1	1809	4922
1	1814	4923
1	1815	4924
1	1811	4925
1	1802	4926
1	1803	4927
1	1796	4928
1	1791	4929
1	1782	4930
1	1776	4931
1	1770	4932
1	1769	4933
1	1772	4934
1	1777	4935
1	1782	4936
1	1783	4937
1	1787	4938
1	1783	4939
1	1787	4940
1	1786	4941
1	1791	4942
1	1790	4943
1	1785	4944
1	1791	4945
1	1796	4946
1	1793	4947
1	1792	4948
1	1795	4949
1	1800	4950
1	1800	4951
1	1800	4952
1	1793	4953
1	1790	4954
1	1783	4955
1	1778	4956
1	1778	4957
1	1789	4958
1	1796	4959
1	1817	4960
1	1823	4961
1	1830	4962
1	1837	4963
1	1841	4964
1	1842	4965
1	1844	4966
1	1842	4967
1	1839	4968
1	1827	4969
1	1822	4970
1	1818	4971
1	1824	4972
1	1824	4973
1	1828	4974
1	1836	4975
1	1844	4976
1	1853	4977
1	1860	4978
1	1868	4979
1	1873	4980
1	1872	4981
1	1866	4982
1	1858	4983
1	1854	4984
1	1847	4985
1	1841	4986
1	1837	4987
1	1829	4988
1	1818	4989
1	1813	4990
1	1801	4991
1	1793	4992
1	1791	4993
1	1791	4994
1	1791	4995
1	1791	4996
1	1783	4997
1	1787	4998
1	1787	4999
1	1786	5000
1	1785	5001
1	1791	5002
1	1790	5003
1	1787	5004
1	1782	5005
1	1777	5006
1	1771	5007
1	1769	5008
1	1764	5009
1	1764	5010
1	1764	5011
1	1757	5012
1	1755	5013
1	1751	5014
1	1749	5015
1	1744	5016
1	1751	5017
1	1756	5018
1	1764	5019
1	1773	5020
1	1779	5021
1	1786	5022
1	1790	5023
1	1790	5024
1	1788	5025
1	1778	5026
1	1760	5027
1	1742	5028
1	1729	5029
1	1715	5030
1	1703	5031
1	1699	5032
1	1694	5033
1	1693	5034
1	1693	5035
1	1693	5036
1	1699	5037
1	1706	5038
1	1713	5039
1	1712	5040
1	1712	5041
1	1708	5042
1	1700	5043
1	1687	5044
1	1680	5045
1	1668	5046
1	1655	5047
1	1647	5048
1	1638	5049
1	1629	5050
1	1633	5051
1	1624	5052
1	1625	5053
1	1623	5054
1	1621	5055
1	1623	5056
1	1619	5057
1	1622	5058
1	1626	5059
1	1634	5060
1	1638	5061
1	1654	5062
1	1660	5063
1	1667	5064
1	1672	5065
1	1674	5066
1	1674	5067
1	1673	5068
1	1668	5069
1	1660	5070
1	1647	5071
1	1629	5072
1	1612	5073
1	1603	5074
1	1597	5075
1	1594	5076
1	1602	5077
1	1603	5078
1	1607	5079
1	1633	5100
1	1634	5101
1	1634	5102
1	1638	5103
1	1643	5104
1	1647	5105
1	1649	5106
1	1660	5107
1	1663	5108
1	1662	5109
1	1665	5110
1	1667	5111
1	1665	5112
1	1661	5113
1	1660	5114
1	1660	5115
1	1659	5116
1	1654	5117
1	1652	5118
1	1649	5119
1	1610	5080
1	1623	5081
1	1634	5082
1	1646	5083
1	1657	5084
1	1661	5085
1	1666	5086
1	1661	5087
1	1660	5088
1	1659	5089
1	1656	5090
1	1647	5091
1	1651	5092
1	1649	5093
1	1647	5094
1	1638	5095
1	1635	5096
1	1634	5097
1	1634	5098
1	1634	5099
1	1649	5120
1	1647	5121
1	1655	5122
1	1652	5123
1	1651	5124
1	1648	5125
1	1647	5126
1	1647	5127
1	1648	5128
1	1650	5129
1	1649	5130
1	1647	5131
1	1647	5132
1	1651	5133
1	1655	5134
1	1659	5135
1	1660	5136
1	1662	5137
1	1660	5138
1	1660	5139
1	1660	5140
1	1661	5141
1	1660	5142
1	1664	5143
1	1667	5144
1	1669	5145
1	1670	5146
1	1672	5147
1	1670	5148
1	1664	5149
1	1661	5150
1	1660	5151
1	1654	5152
1	1660	5153
1	1660	5154
1	1656	5155
1	1656	5156
1	1650	5157
1	1651	5158
1	1649	5159
1	1647	5160
1	1642	5161
1	1634	5162
1	1626	5163
1	1626	5164
1	1625	5165
1	1626	5166
1	1634	5167
1	1643	5168
1	1648	5169
1	1656	5170
1	1660	5171
1	1665	5172
1	1670	5173
1	1674	5174
1	1676	5175
1	1677	5176
1	1674	5177
1	1672	5178
1	1672	5179
1	1670	5180
1	1665	5181
1	1669	5182
1	1664	5183
1	1660	5184
1	1656	5185
1	1652	5186
1	1651	5187
1	1648	5188
1	1647	5189
1	1647	5190
1	1647	5191
1	1642	5192
1	1643	5193
1	1638	5194
1	1634	5195
1	1625	5196
1	1621	5197
1	1611	5198
1	1607	5199
1	1606	5200
1	1607	5201
1	1620	5202
1	1632	5203
1	1641	5204
1	1656	5205
1	1662	5206
1	1662	5207
1	1665	5208
1	1668	5209
1	1670	5210
1	1668	5211
1	1671	5212
1	1667	5213
1	1661	5214
1	1661	5215
1	1661	5216
1	1665	5217
1	1674	5218
1	1682	5219
1	1688	5220
1	1691	5221
1	1688	5222
1	1686	5223
1	1683	5224
1	1675	5225
1	1668	5226
1	1664	5227
1	1657	5228
1	1647	5229
1	1644	5230
1	1639	5231
1	1634	5232
1	1634	5233
1	1634	5234
1	1635	5235
1	1638	5236
1	1636	5237
1	1638	5238
1	1642	5239
1	1644	5240
1	1646	5241
1	1656	5242
1	1660	5243
1	1659	5244
1	1664	5245
1	1665	5246
1	1668	5247
1	1672	5248
1	1673	5249
1	1674	5250
1	1669	5251
1	1660	5252
1	1651	5253
1	1643	5254
1	1635	5255
1	1632	5256
1	1619	5257
1	1618	5258
1	1616	5259
1	1622	5260
1	1625	5261
1	1634	5262
1	1636	5263
1	1645	5264
1	1652	5265
1	1660	5266
1	1660	5267
1	1661	5268
1	1669	5269
1	1674	5270
1	1675	5271
1	1680	5272
1	1674	5273
1	1670	5274
1	1665	5275
1	1665	5276
1	1669	5277
1	1672	5278
1	1674	5279
1	1697	5300
1	1703	5301
1	1719	5302
1	1729	5303
1	1738	5304
1	1742	5305
1	1746	5306
1	1739	5307
1	1731	5308
1	1718	5309
1	1705	5310
1	1688	5311
1	1665	5312
1	1652	5313
1	1641	5314
1	1634	5315
1	1632	5316
1	1634	5317
1	1634	5318
1	1634	5319
1	1672	5280
1	1665	5281
1	1654	5282
1	1645	5283
1	1638	5284
1	1634	5285
1	1631	5286
1	1634	5287
1	1631	5288
1	1629	5289
1	1630	5290
1	1629	5291
1	1634	5292
1	1638	5293
1	1648	5294
1	1657	5295
1	1663	5296
1	1668	5297
1	1680	5298
1	1688	5299
1	1639	5320
1	1645	5321
1	1652	5322
1	1652	5323
1	1652	5324
1	1655	5325
1	1656	5326
1	1654	5327
1	1652	5328
1	1649	5329
1	1644	5330
1	1634	5331
1	1629	5332
1	1616	5333
1	1607	5334
1	1602	5335
1	1606	5336
1	1610	5337
1	1622	5338
1	1625	5339
1	1634	5340
1	1636	5341
1	1637	5342
1	1634	5343
1	1629	5344
1	1622	5345
1	1616	5346
1	1608	5347
1	1613	5348
1	1611	5349
1	1616	5350
1	1621	5351
1	1622	5352
1	1623	5353
1	1625	5354
1	1621	5355
1	1618	5356
1	1611	5357
1	1608	5358
1	1610	5359
1	1613	5360
1	1618	5361
1	1629	5362
1	1631	5363
1	1625	5364
1	1621	5365
1	1618	5366
1	1617	5367
1	1618	5368
1	1621	5369
1	1621	5370
1	1622	5371
1	1618	5372
1	1615	5373
1	1615	5374
1	1613	5375
1	1613	5376
1	1620	5377
1	1618	5378
1	1619	5379
1	1623	5380
1	1629	5381
1	1633	5382
1	1634	5383
1	1633	5384
1	1625	5385
1	1618	5386
1	1607	5387
1	1598	5388
1	1593	5389
1	1589	5390
1	1587	5391
1	1594	5392
1	1600	5393
1	1606	5394
1	1611	5395
1	1618	5396
1	1625	5397
1	1633	5398
1	1636	5399
1	1638	5400
1	1638	5401
1	1638	5402
1	1634	5403
1	1631	5404
1	1625	5405
1	1618	5406
1	1620	5407
1	1619	5408
1	1620	5409
1	1620	5410
1	1622	5411
1	1621	5412
1	1618	5413
1	1612	5414
1	1609	5415
1	1607	5416
1	1600	5417
1	1596	5418
1	1599	5419
1	1602	5420
1	1604	5421
1	1611	5422
1	1616	5423
1	1621	5424
1	1633	5425
1	1639	5426
1	1657	5427
1	1670	5428
1	1686	5429
1	1707	5430
1	1728	5431
1	1743	5432
1	1764	5433
1	1787	5434
1	1813	5435
1	1834	5436
1	1858	5437
1	1875	5438
1	1884	5439
1	2275	5460
1	2222	5461
1	2156	5462
1	2090	5463
1	2021	5464
1	1948	5465
1	1881	5466
1	1826	5467
1	1769	5468
1	1727	5469
1	1694	5470
1	1665	5471
1	1647	5472
1	1633	5473
1	1620	5474
1	1608	5475
1	1602	5476
1	1592	5477
1	1586	5478
1	1587	5479
1	1589	5480
1	1593	5481
1	1600	5482
1	1602	5483
1	1605	5484
1	1602	5485
1	1605	5486
1	1607	5487
1	1611	5488
1	1616	5489
1	1618	5490
1	1619	5491
1	1611	5492
1	1608	5493
1	1607	5494
1	1602	5495
1	1598	5496
1	1599	5497
1	1595	5498
1	1593	5499
1	1908	5440
1	1932	5441
1	1953	5442
1	1986	5443
1	2019	5444
1	2057	5445
1	2093	5446
1	2130	5447
1	2159	5448
1	2188	5449
1	2213	5450
1	2245	5451
1	2268	5452
1	2291	5453
1	2314	5454
1	2328	5455
1	2343	5456
1	2341	5457
1	2332	5458
1	2314	5459
1	1592	5500
1	1593	5501
1	1598	5502
1	1607	5503
1	1616	5504
1	1631	5505
1	1636	5506
1	1636	5507
1	1634	5508
1	1634	5509
1	1634	5510
1	1629	5511
1	1629	5512
1	1623	5513
1	1616	5514
1	1610	5515
1	1605	5516
1	1598	5517
1	1594	5518
1	1592	5519
1	1617	5540
1	1621	5541
1	1618	5542
1	1620	5543
1	1619	5544
1	1616	5545
1	1621	5546
1	1620	5547
1	1619	5548
1	1616	5549
1	1616	5550
1	1611	5551
1	1605	5552
1	1598	5553
1	1599	5554
1	1598	5555
1	1599	5556
1	1598	5557
1	1607	5558
1	1615	5559
1	1590	5520
1	1587	5521
1	1582	5522
1	1581	5523
1	1584	5524
1	1587	5525
1	1590	5526
1	1595	5527
1	1595	5528
1	1597	5529
1	1600	5530
1	1607	5531
1	1608	5532
1	1611	5533
1	1611	5534
1	1611	5535
1	1613	5536
1	1611	5537
1	1611	5538
1	1615	5539
1	1633	5560
1	1643	5561
1	1656	5562
1	1660	5563
1	1660	5564
1	1659	5565
1	1654	5566
1	1638	5567
1	1631	5568
1	1619	5569
1	1610	5570
1	1607	5571
1	1610	5572
1	1610	5573
1	1613	5574
1	1620	5575
1	1629	5576
1	1634	5577
1	1646	5578
1	1648	5579
1	1652	5580
1	1654	5581
1	1647	5582
1	1651	5583
1	1656	5584
1	1660	5585
1	1660	5586
1	1665	5587
1	1667	5588
1	1664	5589
1	1660	5590
1	1656	5591
1	1648	5592
1	1637	5593
1	1626	5594
1	1612	5595
1	1602	5596
1	1593	5597
1	1587	5598
1	1591	5599
1	1597	5600
1	1610	5601
1	1631	5602
1	1645	5603
1	1657	5604
1	1664	5605
1	1671	5606
1	1682	5607
1	1687	5608
1	1695	5609
1	1701	5610
1	1705	5611
1	1703	5612
1	1702	5613
1	1698	5614
1	1686	5615
1	1669	5616
1	1660	5617
1	1651	5618
1	1646	5619
1	1643	5620
1	1642	5621
1	1639	5622
1	1644	5623
1	1647	5624
1	1651	5625
1	1658	5626
1	1656	5627
1	1657	5628
1	1661	5629
1	1672	5630
1	1682	5631
1	1692	5632
1	1697	5633
1	1698	5634
1	1699	5635
1	1701	5636
1	1703	5637
1	1706	5638
1	1704	5639
1	1704	5640
1	1706	5641
1	1708	5642
1	1710	5643
1	1710	5644
1	1707	5645
1	1705	5646
1	1704	5647
1	1702	5648
1	1700	5649
1	1698	5650
1	1704	5651
1	1703	5652
1	1703	5653
1	1708	5654
1	1711	5655
1	1712	5656
1	1710	5657
1	1710	5658
1	1711	5659
1	1710	5680
1	1701	5681
1	1698	5682
1	1705	5683
1	1712	5684
1	1721	5685
1	1729	5686
1	1733	5687
1	1733	5688
1	1737	5689
1	1739	5690
1	1742	5691
1	1755	5692
1	1759	5693
1	1762	5694
1	1765	5695
1	1770	5696
1	1766	5697
1	1764	5698
1	1760	5699
1	1712	5660
1	1712	5661
1	1723	5662
1	1726	5663
1	1733	5664
1	1738	5665
1	1746	5666
1	1751	5667
1	1754	5668
1	1759	5669
1	1762	5670
1	1763	5671
1	1755	5672
1	1755	5673
1	1755	5674
1	1751	5675
1	1750	5676
1	1746	5677
1	1736	5678
1	1721	5679
1	1752	5700
1	1755	5701
1	1748	5702
1	1746	5703
1	1743	5704
1	1744	5705
1	1742	5706
1	1744	5707
1	1738	5708
1	1733	5709
1	1723	5710
1	1716	5711
1	1712	5712
1	1709	5713
1	1706	5714
1	1703	5715
1	1704	5716
1	1698	5717
1	1698	5718
1	1697	5719
1	1691	5720
1	1686	5721
1	1690	5722
1	1688	5723
1	1686	5724
1	1683	5725
1	1677	5726
1	1668	5727
1	1660	5728
1	1658	5729
1	1651	5730
1	1645	5731
1	1638	5732
1	1634	5733
1	1633	5734
1	1634	5735
1	1638	5736
1	1651	5737
1	1657	5738
1	1660	5739
1	1647	5740
1	1647	5741
1	1634	5742
1	1621	5743
1	1608	5744
1	1602	5745
1	1593	5746
1	1585	5747
1	1581	5748
1	1574	5749
1	1567	5750
1	1564	5751
1	1569	5752
1	1579	5753
1	1583	5754
1	1583	5755
1	1580	5756
1	1581	5757
1	1576	5758
1	1569	5759
1	1562	5760
1	1562	5761
1	1555	5762
1	1557	5763
1	1557	5764
1	1560	5765
1	1566	5766
1	1577	5767
1	1581	5768
1	1581	5769
1	1581	5770
1	1582	5771
1	1582	5772
1	1584	5773
1	1589	5774
1	1587	5775
1	1582	5776
1	1580	5777
1	1570	5778
1	1562	5779
1	1556	5780
1	1555	5781
1	1557	5782
1	1561	5783
1	1563	5784
1	1564	5785
1	1563	5786
1	1560	5787
1	1556	5788
1	1555	5789
1	1557	5790
1	1559	5791
1	1556	5792
1	1557	5793
1	1557	5794
1	1561	5795
1	1562	5796
1	1564	5797
1	1562	5798
1	1556	5799
1	1548	5800
1	1544	5801
1	1546	5802
1	1552	5803
1	1557	5804
1	1567	5805
1	1579	5806
1	1581	5807
1	1587	5808
1	1593	5809
1	1593	5810
1	1587	5811
1	1585	5812
1	1579	5813
1	1572	5814
1	1564	5815
1	1557	5816
1	1555	5817
1	1554	5818
1	1555	5819
1	1523	5840
1	1528	5841
1	1540	5842
1	1551	5843
1	1555	5844
1	1568	5845
1	1571	5846
1	1576	5847
1	1577	5848
1	1579	5849
1	1579	5850
1	1580	5851
1	1571	5852
1	1569	5853
1	1569	5854
1	1577	5855
1	1582	5856
1	1592	5857
1	1600	5858
1	1607	5859
1	1558	5820
1	1566	5821
1	1568	5822
1	1571	5823
1	1579	5824
1	1580	5825
1	1581	5826
1	1584	5827
1	1585	5828
1	1582	5829
1	1580	5830
1	1572	5831
1	1564	5832
1	1553	5833
1	1547	5834
1	1539	5835
1	1533	5836
1	1526	5837
1	1518	5838
1	1520	5839
1	1612	5860
1	1615	5861
1	1610	5862
1	1607	5863
1	1603	5864
1	1602	5865
1	1602	5866
1	1600	5867
1	1598	5868
1	1597	5869
1	1596	5870
1	1593	5871
1	1589	5872
1	1580	5873
1	1571	5874
1	1563	5875
1	1555	5876
1	1551	5877
1	1548	5878
1	1543	5879
1	1545	5880
1	1551	5881
1	1549	5882
1	1554	5883
1	1557	5884
1	1564	5885
1	1569	5886
1	1579	5887
1	1581	5888
1	1584	5889
1	1589	5890
1	1594	5891
1	1596	5892
1	1598	5893
1	1599	5894
1	1602	5895
1	1603	5896
1	1594	5897
1	1594	5898
1	1596	5899
1	1599	5900
1	1600	5901
1	1600	5902
1	1593	5903
1	1582	5904
1	1575	5905
1	1566	5906
1	1557	5907
1	1551	5908
1	1551	5909
1	1550	5910
1	1553	5911
1	1552	5912
1	1555	5913
1	1555	5914
1	1555	5915
1	1555	5916
1	1562	5917
1	1567	5918
1	1567	5919
1	1571	5920
1	1572	5921
1	1575	5922
1	1578	5923
1	1581	5924
1	1586	5925
1	1592	5926
1	1590	5927
1	1593	5928
1	1597	5929
1	1599	5930
1	1598	5931
1	1595	5932
1	1590	5933
1	1583	5934
1	1580	5935
1	1580	5936
1	1581	5937
1	1584	5938
1	1584	5939
1	1590	5940
1	1593	5941
1	1593	5942
1	1593	5943
1	1587	5944
1	1581	5945
1	1580	5946
1	1577	5947
1	1574	5948
1	1572	5949
1	1580	5950
1	1575	5951
1	1579	5952
1	1579	5953
1	1578	5954
1	1571	5955
1	1562	5956
1	1548	5957
1	1539	5958
1	1532	5959
1	1529	5960
1	1530	5961
1	1542	5962
1	1548	5963
1	1554	5964
1	1558	5965
1	1560	5966
1	1558	5967
1	1558	5968
1	1558	5969
1	1560	5970
1	1559	5971
1	1558	5972
1	1559	5973
1	1562	5974
1	1566	5975
1	1564	5976
1	1569	5977
1	1566	5978
1	1564	5979
1	1564	5980
1	1564	5981
1	1569	5982
1	1573	5983
1	1572	5984
1	1579	5985
1	1580	5986
1	1575	5987
1	1573	5988
1	1572	5989
1	1576	5990
1	1577	5991
1	1581	5992
1	1581	5993
1	1581	5994
1	1580	5995
1	1580	5996
1	1571	5997
1	1567	5998
1	1561	5999
1	1555	6000
1	1554	6001
1	1549	6002
1	1550	6003
1	1554	6004
1	1561	6005
1	1569	6006
1	1579	6007
1	1580	6008
1	1580	6009
1	1573	6010
1	1570	6011
1	1569	6012
1	1571	6013
1	1572	6014
1	1577	6015
1	1581	6016
1	1582	6017
1	1587	6018
1	1594	6019
1	1599	6020
1	1607	6021
1	1622	6022
1	1634	6023
1	1641	6024
1	1647	6025
1	1649	6026
1	1647	6027
1	1642	6028
1	1631	6029
1	1611	6030
1	1595	6031
1	1572	6032
1	1556	6033
1	1544	6034
1	1540	6035
1	1539	6036
1	1547	6037
1	1557	6038
1	1562	6039
1	1579	6040
1	1593	6041
1	1600	6042
1	1613	6043
1	1623	6044
1	1629	6045
1	1632	6046
1	1633	6047
1	1634	6048
1	1633	6049
1	1629	6050
1	1628	6051
1	1629	6052
1	1625	6053
1	1622	6054
1	1625	6055
1	1618	6056
1	1613	6057
1	1609	6058
1	1608	6059
1	1609	6060
1	1609	6061
1	1607	6062
1	1607	6063
1	1608	6064
1	1615	6065
1	1622	6066
1	1633	6067
1	1633	6068
1	1634	6069
1	1629	6070
1	1625	6071
1	1617	6072
1	1610	6073
1	1603	6074
1	1598	6075
1	1596	6076
1	1594	6077
1	1600	6078
1	1607	6079
1	1619	6080
1	1631	6081
1	1641	6082
1	1646	6083
1	1644	6084
1	1638	6085
1	1632	6086
1	1620	6087
1	1610	6088
1	1604	6089
1	1595	6090
1	1589	6091
1	1581	6092
1	1580	6093
1	1579	6094
1	1576	6095
1	1576	6096
1	1581	6097
1	1583	6098
1	1590	6099
1	1596	6100
1	1606	6101
1	1613	6102
1	1620	6103
1	1629	6104
1	1634	6105
1	1643	6106
1	1638	6107
1	1638	6108
1	1634	6109
1	1628	6110
1	1619	6111
1	1618	6112
1	1612	6113
1	1608	6114
1	1608	6115
1	1607	6116
1	1605	6117
1	1602	6118
1	1602	6119
1	1606	6120
1	1610	6121
1	1616	6122
1	1621	6123
1	1629	6124
1	1625	6125
1	1615	6126
1	1605	6127
1	1589	6128
1	1579	6129
1	1572	6130
1	1569	6131
1	1569	6132
1	1568	6133
1	1567	6134
1	1568	6135
1	1571	6136
1	1571	6137
1	1577	6138
1	1582	6139
1	1584	6140
1	1586	6141
1	1593	6142
1	1593	6143
1	1586	6144
1	1596	6145
1	1603	6146
1	1611	6147
1	1620	6148
1	1625	6149
1	1629	6150
1	1626	6151
1	1616	6152
1	1607	6153
1	1598	6154
1	1592	6155
1	1589	6156
1	1587	6157
1	1587	6158
1	1589	6159
1	1594	6160
1	1591	6161
1	1592	6162
1	1594	6163
1	1596	6164
1	1600	6165
1	1605	6166
1	1602	6167
1	1604	6168
1	1604	6169
1	1600	6170
1	1598	6171
1	1603	6172
1	1599	6173
1	1594	6174
1	1594	6175
1	1593	6176
1	1594	6177
1	1590	6178
1	1589	6179
1	1584	6180
1	1583	6181
1	1581	6182
1	1584	6183
1	1582	6184
1	1581	6185
1	1579	6186
1	1581	6187
1	1584	6188
1	1590	6189
1	1598	6190
1	1607	6191
1	1618	6192
1	1634	6193
1	1650	6194
1	1674	6195
1	1698	6196
1	1716	6197
1	1744	6198
1	1773	6199
1	1808	6200
1	1843	6201
1	1877	6202
1	1909	6203
1	1937	6204
1	1962	6205
1	1989	6206
1	2014	6207
1	2040	6208
1	2066	6209
1	2095	6210
1	2125	6211
1	2143	6212
1	2166	6213
1	2188	6214
1	2210	6215
1	2236	6216
1	2266	6217
1	2280	6218
1	2286	6219
1	2277	6220
1	2260	6221
1	2222	6222
1	2183	6223
1	2139	6224
1	2089	6225
1	2029	6226
1	1957	6227
1	1888	6228
1	1821	6229
1	1759	6230
1	1710	6231
1	1674	6232
1	1644	6233
1	1623	6234
1	1609	6235
1	1604	6236
1	1597	6237
1	1590	6238
1	1581	6239
1	1576	6240
1	1570	6241
1	1571	6242
1	1574	6243
1	1576	6244
1	1572	6245
1	1571	6246
1	1573	6247
1	1575	6248
1	1575	6249
1	1573	6250
1	1581	6251
1	1581	6252
1	1581	6253
1	1581	6254
1	1580	6255
1	1574	6256
1	1566	6257
1	1566	6258
1	1569	6259
1	1577	6260
1	1581	6261
1	1595	6262
1	1600	6263
1	1605	6264
1	1607	6265
1	1608	6266
1	1612	6267
1	1616	6268
1	1616	6269
1	1611	6270
1	1607	6271
1	1598	6272
1	1597	6273
1	1597	6274
1	1595	6275
1	1598	6276
1	1607	6277
1	1614	6278
1	1625	6279
1	1598	6300
1	1602	6301
1	1603	6302
1	1611	6303
1	1621	6304
1	1631	6305
1	1636	6306
1	1647	6307
1	1647	6308
1	1651	6309
1	1655	6310
1	1661	6311
1	1669	6312
1	1674	6313
1	1678	6314
1	1679	6315
1	1674	6316
1	1664	6317
1	1654	6318
1	1647	6319
1	1634	6300
1	1642	6301
1	1651	6302
1	1657	6303
1	1660	6304
1	1669	6305
1	1675	6306
1	1675	6307
1	1668	6308
1	1660	6309
1	1649	6310
1	1638	6311
1	1634	6312
1	1626	6313
1	1616	6314
1	1610	6315
1	1607	6316
1	1602	6317
1	1602	6318
1	1598	6319
1	1638	6320
1	1634	6321
1	1638	6322
1	1637	6323
1	1635	6324
1	1634	6325
1	1635	6326
1	1638	6327
1	1644	6328
1	1649	6329
1	1656	6330
1	1660	6331
1	1658	6332
1	1660	6333
1	1662	6334
1	1664	6335
1	1662	6336
1	1662	6337
1	1660	6338
1	1647	6339
1	1703	6360
1	1707	6361
1	1701	6362
1	1698	6363
1	1695	6364
1	1697	6365
1	1695	6366
1	1703	6367
1	1706	6368
1	1709	6369
1	1710	6370
1	1710	6371
1	1712	6372
1	1712	6373
1	1712	6374
1	1712	6375
1	1712	6376
1	1701	6377
1	1694	6378
1	1687	6379
1	1654	6340
1	1659	6341
1	1657	6342
1	1660	6343
1	1664	6344
1	1669	6345
1	1672	6346
1	1675	6347
1	1680	6348
1	1684	6349
1	1686	6350
1	1688	6351
1	1695	6352
1	1696	6353
1	1693	6354
1	1688	6355
1	1692	6356
1	1692	6357
1	1695	6358
1	1698	6359
1	1683	6380
1	1679	6381
1	1683	6382
1	1686	6383
1	1686	6384
1	1688	6385
1	1690	6386
1	1688	6387
1	1687	6388
1	1689	6389
1	1698	6390
1	1711	6391
1	1716	6392
1	1727	6393
1	1738	6394
1	1751	6395
1	1760	6396
1	1764	6397
1	1764	6398
1	1754	6399
1	1754	6400
1	1748	6401
1	1738	6402
1	1733	6403
1	1726	6404
1	1721	6405
1	1716	6406
1	1712	6407
1	1712	6408
1	1710	6409
1	1707	6410
1	1708	6411
1	1715	6412
1	1724	6413
1	1734	6414
1	1742	6415
1	1754	6416
1	1765	6417
1	1777	6418
1	1783	6419
1	1792	6420
1	1807	6421
1	1811	6422
1	1817	6423
1	1817	6424
1	1818	6425
1	1817	6426
1	1817	6427
1	1815	6428
1	1811	6429
1	1803	6430
1	1798	6431
1	1796	6432
1	1798	6433
1	1799	6434
1	1801	6435
1	1801	6436
1	1791	6437
1	1791	6438
1	1791	6439
1	1787	6440
1	1788	6441
1	1791	6442
1	1791	6443
1	1789	6444
1	1793	6445
1	1798	6446
1	1803	6447
1	1808	6448
1	1809	6449
1	1802	6450
1	1801	6451
1	1795	6452
1	1796	6453
1	1795	6454
1	1799	6455
1	1799	6456
1	1800	6457
1	1796	6458
1	1794	6459
1	1796	6460
1	1800	6461
1	1802	6462
1	1811	6463
1	1814	6464
1	1817	6465
1	1818	6466
1	1814	6467
1	1811	6468
1	1803	6469
1	1795	6470
1	1789	6471
1	1787	6472
1	1778	6473
1	1769	6474
1	1764	6475
1	1757	6476
1	1753	6477
1	1751	6478
1	1751	6479
1	1757	6480
1	1764	6481
1	1764	6482
1	1770	6483
1	1778	6484
1	1783	6485
1	1793	6486
1	1808	6487
1	1809	6488
1	1803	6489
1	1813	6490
1	1808	6491
1	1799	6492
1	1788	6493
1	1770	6494
1	1752	6495
1	1733	6496
1	1710	6497
1	1692	6498
1	1678	6499
1	1668	6500
1	1662	6501
1	1669	6502
1	1677	6503
1	1686	6504
1	1697	6505
1	1709	6506
1	1717	6507
1	1728	6508
1	1738	6509
1	1738	6510
1	1738	6511
1	1731	6512
1	1724	6513
1	1715	6514
1	1707	6515
1	1695	6516
1	1687	6517
1	1677	6518
1	1662	6519
1	1652	6520
1	1645	6521
1	1639	6522
1	1638	6523
1	1638	6524
1	1638	6525
1	1643	6526
1	1644	6527
1	1648	6528
1	1653	6529
1	1657	6530
1	1661	6531
1	1670	6532
1	1670	6533
1	1670	6534
1	1670	6535
1	1665	6536
1	1661	6537
1	1656	6538
1	1647	6539
1	1638	6540
1	1634	6541
1	1632	6542
1	1625	6543
1	1616	6544
1	1608	6545
1	1607	6546
1	1607	6547
1	1611	6548
1	1615	6549
1	1619	6550
1	1634	6551
1	1638	6552
1	1645	6553
1	1646	6554
1	1643	6555
1	1639	6556
1	1634	6557
1	1634	6558
1	1633	6559
1	1628	6560
1	1624	6561
1	1626	6562
1	1626	6563
1	1631	6564
1	1634	6565
1	1634	6566
1	1635	6567
1	1636	6568
1	1638	6569
1	1639	6570
1	1639	6571
1	1634	6572
1	1634	6573
1	1634	6574
1	1634	6575
1	1634	6576
1	1641	6577
1	1644	6578
1	1644	6579
1	1643	6580
1	1643	6581
1	1644	6582
1	1642	6583
1	1638	6584
1	1636	6585
1	1634	6586
1	1626	6587
1	1625	6588
1	1629	6589
1	1626	6590
1	1626	6591
1	1629	6592
1	1625	6593
1	1629	6594
1	1629	6595
1	1629	6596
1	1633	6597
1	1634	6598
1	1643	6599
1	1647	6600
1	1656	6601
1	1656	6602
1	1660	6603
1	1661	6604
1	1661	6605
1	1661	6606
1	1665	6607
1	1665	6608
1	1665	6609
1	1665	6610
1	1667	6611
1	1669	6612
1	1674	6613
1	1681	6614
1	1683	6615
1	1683	6616
1	1675	6617
1	1675	6618
1	1672	6619
1	1668	6620
1	1664	6621
1	1668	6622
1	1670	6623
1	1670	6624
1	1670	6625
1	1670	6626
1	1671	6627
1	1671	6628
1	1673	6629
1	1673	6630
1	1673	6631
1	1670	6632
1	1674	6633
1	1680	6634
1	1682	6635
1	1683	6636
1	1684	6637
1	1679	6638
1	1674	6639
1	1681	6660
1	1686	6661
1	1683	6662
1	1686	6663
1	1686	6664
1	1685	6665
1	1685	6666
1	1688	6667
1	1686	6668
1	1683	6669
1	1678	6670
1	1680	6671
1	1682	6672
1	1686	6673
1	1688	6674
1	1690	6675
1	1691	6676
1	1686	6677
1	1686	6678
1	1686	6679
1	1661	6640
1	1665	6641
1	1661	6642
1	1661	6643
1	1662	6644
1	1663	6645
1	1662	6646
1	1665	6647
1	1670	6648
1	1669	6649
1	1670	6650
1	1669	6651
1	1669	6652
1	1671	6653
1	1671	6654
1	1670	6655
1	1676	6656
1	1675	6657
1	1675	6658
1	1678	6659
1	1686	6680
1	1686	6681
1	1688	6682
1	1688	6683
1	1687	6684
1	1690	6685
1	1695	6686
1	1698	6687
1	1699	6688
1	1697	6689
1	1693	6690
1	1687	6691
1	1681	6692
1	1676	6693
1	1674	6694
1	1672	6695
1	1668	6696
1	1670	6697
1	1665	6698
1	1660	6699
1	1660	6700
1	1660	6701
1	1664	6702
1	1671	6703
1	1679	6704
1	1685	6705
1	1687	6706
1	1686	6707
1	1692	6708
1	1698	6709
1	1700	6710
1	1700	6711
1	1700	6712
1	1695	6713
1	1686	6714
1	1684	6715
1	1686	6716
1	1688	6717
1	1694	6718
1	1698	6719
1	1701	6720
1	1701	6721
1	1691	6722
1	1685	6723
1	1673	6724
1	1664	6725
1	1660	6726
1	1659	6727
1	1657	6728
1	1656	6729
1	1654	6730
1	1654	6731
1	1652	6732
1	1657	6733
1	1660	6734
1	1665	6735
1	1674	6736
1	1676	6737
1	1683	6738
1	1686	6739
1	1686	6740
1	1686	6741
1	1689	6742
1	1686	6743
1	1678	6744
1	1680	6745
1	1679	6746
1	1679	6747
1	1677	6748
1	1672	6749
1	1670	6750
1	1670	6751
1	1665	6752
1	1661	6753
1	1660	6754
1	1660	6755
1	1660	6756
1	1662	6757
1	1661	6758
1	1665	6759
1	1669	6760
1	1684	6761
1	1689	6762
1	1698	6763
1	1703	6764
1	1708	6765
1	1707	6766
1	1695	6767
1	1688	6768
1	1682	6769
1	1673	6770
1	1662	6771
1	1660	6772
1	1654	6773
1	1650	6774
1	1649	6775
1	1652	6776
1	1655	6777
1	1660	6778
1	1661	6779
1	1669	6780
1	1677	6781
1	1683	6782
1	1689	6783
1	1701	6784
1	1711	6785
1	1715	6786
1	1723	6787
1	1721	6788
1	1720	6789
1	1717	6790
1	1713	6791
1	1712	6792
1	1711	6793
1	1707	6794
1	1704	6795
1	1700	6796
1	1688	6797
1	1683	6798
1	1679	6799
1	1677	6800
1	1680	6801
1	1688	6802
1	1695	6803
1	1699	6804
1	1705	6805
1	1711	6806
1	1715	6807
1	1719	6808
1	1723	6809
1	1724	6810
1	1725	6811
1	1716	6812
1	1712	6813
1	1706	6814
1	1699	6815
1	1697	6816
1	1699	6817
1	1701	6818
1	1701	6819
1	1701	6820
1	1697	6821
1	1690	6822
1	1685	6823
1	1684	6824
1	1686	6825
1	1686	6826
1	1683	6827
1	1685	6828
1	1688	6829
1	1692	6830
1	1694	6831
1	1699	6832
1	1701	6833
1	1710	6834
1	1716	6835
1	1725	6836
1	1733	6837
1	1738	6838
1	1738	6839
1	1739	6840
1	1738	6841
1	1734	6842
1	1727	6843
1	1724	6844
1	1717	6845
1	1716	6846
1	1714	6847
1	1713	6848
1	1713	6849
1	1712	6850
1	1719	6851
1	1724	6852
1	1725	6853
1	1726	6854
1	1724	6855
1	1725	6856
1	1721	6857
1	1719	6858
1	1723	6859
1	1724	6860
1	1723	6861
1	1726	6862
1	1723	6863
1	1724	6864
1	1726	6865
1	1728	6866
1	1731	6867
1	1730	6868
1	1728	6869
1	1726	6870
1	1723	6871
1	1713	6872
1	1707	6873
1	1699	6874
1	1692	6875
1	1686	6876
1	1686	6877
1	1681	6878
1	1674	6879
1	1708	6900
1	1703	6901
1	1698	6902
1	1698	6903
1	1695	6904
1	1693	6905
1	1687	6906
1	1686	6907
1	1685	6908
1	1677	6909
1	1670	6910
1	1665	6911
1	1664	6912
1	1663	6913
1	1663	6914
1	1665	6915
1	1668	6916
1	1669	6917
1	1674	6918
1	1681	6919
1	1673	6880
1	1674	6881
1	1682	6882
1	1686	6883
1	1689	6884
1	1695	6885
1	1696	6886
1	1686	6887
1	1679	6888
1	1674	6889
1	1669	6890
1	1667	6891
1	1677	6892
1	1683	6893
1	1688	6894
1	1696	6895
1	1698	6896
1	1701	6897
1	1705	6898
1	1708	6899
1	1683	6920
1	1686	6921
1	1692	6922
1	1695	6923
1	1693	6924
1	1697	6925
1	1695	6926
1	1697	6927
1	1697	6928
1	1702	6929
1	1710	6930
1	1715	6931
1	1711	6932
1	1712	6933
1	1712	6934
1	1713	6935
1	1717	6936
1	1723	6937
1	1715	6938
1	1708	6939
1	1668	6960
1	1661	6961
1	1652	6962
1	1648	6963
1	1644	6964
1	1642	6965
1	1642	6966
1	1647	6967
1	1648	6968
1	1654	6969
1	1659	6970
1	1661	6971
1	1668	6972
1	1679	6973
1	1686	6974
1	1700	6975
1	1715	6976
1	1735	6977
1	1759	6978
1	1786	6979
1	1702	6940
1	1707	6941
1	1699	6942
1	1697	6943
1	1693	6944
1	1688	6945
1	1688	6946
1	1688	6947
1	1691	6948
1	1688	6949
1	1686	6950
1	1683	6951
1	1678	6952
1	1672	6953
1	1668	6954
1	1667	6955
1	1674	6956
1	1673	6957
1	1672	6958
1	1669	6959
1	1817	6980
1	1844	6981
1	1878	6982
1	1908	6983
1	1935	6984
1	1961	6985
1	1983	6986
1	2000	6987
1	2021	6988
1	2037	6989
1	2053	6990
1	2077	6991
1	2092	6992
1	2118	6993
1	2146	6994
1	2174	6995
1	2210	6996
1	2249	6997
1	2273	6998
1	2291	6999
1	2305	7000
1	2314	7001
1	2314	7002
1	2312	7003
1	2300	7004
1	2281	7005
1	2257	7006
1	2210	7007
1	2166	7008
1	2114	7009
1	2052	7010
1	1995	7011
1	1939	7012
1	1880	7013
1	1825	7014
1	1775	7015
1	1738	7016
1	1708	7017
1	1686	7018
1	1672	7019
1	1661	7020
1	1656	7021
1	1639	7022
1	1634	7023
1	1630	7024
1	1629	7025
1	1630	7026
1	1634	7027
1	1633	7028
1	1634	7029
1	1638	7030
1	1646	7031
1	1652	7032
1	1656	7033
1	1661	7034
1	1665	7035
1	1672	7036
1	1672	7037
1	1677	7038
1	1682	7039
1	1686	7040
1	1686	7041
1	1690	7042
1	1690	7043
1	1686	7044
1	1688	7045
1	1687	7046
1	1686	7047
1	1686	7048
1	1686	7049
1	1683	7050
1	1679	7051
1	1670	7052
1	1665	7053
1	1661	7054
1	1662	7055
1	1661	7056
1	1664	7057
1	1667	7058
1	1672	7059
1	1701	7080
1	1705	7081
1	1701	7082
1	1705	7083
1	1705	7084
1	1705	7085
1	1700	7086
1	1701	7087
1	1700	7088
1	1701	7089
1	1700	7090
1	1697	7091
1	1691	7092
1	1686	7093
1	1681	7094
1	1675	7095
1	1674	7096
1	1665	7097
1	1667	7098
1	1671	7099
1	1675	7060
1	1686	7061
1	1690	7062
1	1695	7063
1	1699	7064
1	1705	7065
1	1710	7066
1	1700	7067
1	1699	7068
1	1698	7069
1	1692	7070
1	1687	7071
1	1687	7072
1	1686	7073
1	1686	7074
1	1688	7075
1	1690	7076
1	1694	7077
1	1697	7078
1	1699	7079
1	1674	7100
1	1673	7101
1	1679	7102
1	1683	7103
1	1682	7104
1	1683	7105
1	1682	7106
1	1681	7107
1	1682	7108
1	1686	7109
1	1690	7110
1	1699	7111
1	1700	7112
1	1707	7113
1	1712	7114
1	1715	7115
1	1719	7116
1	1727	7117
1	1731	7118
1	1736	7119
1	1738	7120
1	1740	7121
1	1741	7122
1	1741	7123
1	1742	7124
1	1743	7125
1	1742	7126
1	1737	7127
1	1733	7128
1	1729	7129
1	1721	7130
1	1712	7131
1	1708	7132
1	1698	7133
1	1693	7134
1	1688	7135
1	1687	7136
1	1686	7137
1	1684	7138
1	1683	7139
1	1688	7140
1	1697	7141
1	1704	7142
1	1711	7143
1	1714	7144
1	1723	7145
1	1730	7146
1	1735	7147
1	1736	7148
1	1730	7149
1	1718	7150
1	1716	7151
1	1713	7152
1	1713	7153
1	1712	7154
1	1713	7155
1	1718	7156
1	1715	7157
1	1717	7158
1	1719	7159
1	1723	7160
1	1724	7161
1	1729	7162
1	1729	7163
1	1728	7164
1	1728	7165
1	1728	7166
1	1729	7167
1	1729	7168
1	1733	7169
1	1734	7170
1	1737	7171
1	1731	7172
1	1734	7173
1	1737	7174
1	1737	7175
1	1738	7176
1	1742	7177
1	1742	7178
1	1742	7179
1	1744	7180
1	1749	7181
1	1752	7182
1	1757	7183
1	1764	7184
1	1775	7185
1	1785	7186
1	1787	7187
1	1791	7188
1	1791	7189
1	1790	7190
1	1788	7191
1	1788	7192
1	1780	7193
1	1776	7194
1	1769	7195
1	1773	7196
1	1778	7197
1	1785	7198
1	1790	7199
1	1791	7200
1	1791	7201
1	1790	7202
1	1791	7203
1	1803	7204
1	1812	7205
1	1818	7206
1	1830	7207
1	1832	7208
1	1834	7209
1	1832	7210
1	1830	7211
1	1829	7212
1	1827	7213
1	1827	7214
1	1825	7215
1	1823	7216
1	1813	7217
1	1800	7218
1	1793	7219
1	1789	7220
1	1778	7221
1	1770	7222
1	1764	7223
1	1764	7224
1	1765	7225
1	1775	7226
1	1783	7227
1	1796	7228
1	1813	7229
1	1819	7230
1	1822	7231
1	1817	7232
1	1817	7233
1	1817	7234
1	1817	7235
1	1818	7236
1	1824	7237
1	1823	7238
1	1817	7239
1	1818	7240
1	1828	7241
1	1824	7242
1	1826	7243
1	1827	7244
1	1829	7245
1	1830	7246
1	1831	7247
1	1828	7248
1	1822	7249
1	1818	7250
1	1813	7251
1	1802	7252
1	1795	7253
1	1791	7254
1	1787	7255
1	1790	7256
1	1791	7257
1	1791	7258
1	1794	7259
1	1793	7260
1	1794	7261
1	1789	7262
1	1787	7263
1	1782	7264
1	1777	7265
1	1773	7266
1	1776	7267
1	1775	7268
1	1770	7269
1	1767	7270
1	1762	7271
1	1755	7272
1	1755	7273
1	1755	7274
1	1762	7275
1	1764	7276
1	1760	7277
1	1755	7278
1	1755	7279
1	1756	7280
1	1754	7281
1	1755	7282
1	1751	7283
1	1739	7284
1	1727	7285
1	1718	7286
1	1712	7287
1	1706	7288
1	1705	7289
1	1700	7290
1	1693	7291
1	1683	7292
1	1672	7293
1	1660	7294
1	1651	7295
1	1643	7296
1	1644	7297
1	1643	7298
1	1638	7299
1	1634	7300
1	1631	7301
1	1626	7302
1	1623	7303
1	1620	7304
1	1620	7305
1	1623	7306
1	1619	7307
1	1615	7308
1	1610	7309
1	1605	7310
1	1600	7311
1	1603	7312
1	1605	7313
1	1605	7314
1	1607	7315
1	1608	7316
1	1616	7317
1	1620	7318
1	1625	7319
1	1586	7340
1	1589	7341
1	1596	7342
1	1598	7343
1	1594	7344
1	1593	7345
1	1596	7346
1	1582	7347
1	1576	7348
1	1571	7349
1	1562	7350
1	1554	7351
1	1546	7352
1	1542	7353
1	1542	7354
1	1546	7355
1	1553	7356
1	1560	7357
1	1560	7358
1	1561	7359
1	1628	7320
1	1625	7321
1	1614	7322
1	1607	7323
1	1603	7324
1	1598	7325
1	1592	7326
1	1587	7327
1	1585	7328
1	1582	7329
1	1581	7330
1	1580	7331
1	1580	7332
1	1575	7333
1	1574	7334
1	1574	7335
1	1574	7336
1	1572	7337
1	1580	7338
1	1582	7339
1	1563	7360
1	1558	7361
1	1555	7362
1	1550	7363
1	1547	7364
1	1544	7365
1	1547	7366
1	1544	7367
1	1549	7368
1	1555	7369
1	1557	7370
1	1562	7371
1	1570	7372
1	1573	7373
1	1576	7374
1	1580	7375
1	1579	7376
1	1581	7377
1	1584	7378
1	1587	7379
1	1592	7380
1	1593	7381
1	1593	7382
1	1594	7383
1	1598	7384
1	1598	7385
1	1598	7386
1	1600	7387
1	1596	7388
1	1590	7389
1	1581	7390
1	1572	7391
1	1566	7392
1	1562	7393
1	1561	7394
1	1569	7395
1	1574	7396
1	1579	7397
1	1581	7398
1	1582	7399
1	1581	7400
1	1579	7401
1	1580	7402
1	1575	7403
1	1567	7404
1	1565	7405
1	1564	7406
1	1562	7407
1	1561	7408
1	1557	7409
1	1555	7410
1	1555	7411
1	1555	7412
1	1560	7413
1	1562	7414
1	1567	7415
1	1571	7416
1	1576	7417
1	1579	7418
1	1579	7419
1	1577	7420
1	1580	7421
1	1581	7422
1	1584	7423
1	1583	7424
1	1584	7425
1	1582	7426
1	1581	7427
1	1580	7428
1	1581	7429
1	1579	7430
1	1574	7431
1	1578	7432
1	1573	7433
1	1568	7434
1	1565	7435
1	1564	7436
1	1566	7437
1	1565	7438
1	1561	7439
1	1564	7440
1	1566	7441
1	1568	7442
1	1568	7443
1	1565	7444
1	1563	7445
1	1563	7446
1	1563	7447
1	1558	7448
1	1555	7449
1	1553	7450
1	1556	7451
1	1557	7452
1	1556	7453
1	1555	7454
1	1554	7455
1	1552	7456
1	1544	7457
1	1545	7458
1	1549	7459
1	1554	7460
1	1557	7461
1	1577	7462
1	1584	7463
1	1590	7464
1	1594	7465
1	1597	7466
1	1597	7467
1	1598	7468
1	1598	7469
1	1597	7470
1	1594	7471
1	1585	7472
1	1580	7473
1	1575	7474
1	1568	7475
1	1564	7476
1	1566	7477
1	1555	7478
1	1551	7479
1	1548	7480
1	1550	7481
1	1551	7482
1	1555	7483
1	1559	7484
1	1563	7485
1	1568	7486
1	1567	7487
1	1569	7488
1	1566	7489
1	1559	7490
1	1555	7491
1	1553	7492
1	1544	7493
1	1540	7494
1	1536	7495
1	1530	7496
1	1527	7497
1	1526	7498
1	1528	7499
1	1533	7500
1	1539	7501
1	1543	7502
1	1548	7503
1	1549	7504
1	1551	7505
1	1549	7506
1	1555	7507
1	1555	7508
1	1556	7509
1	1556	7510
1	1558	7511
1	1561	7512
1	1561	7513
1	1560	7514
1	1555	7515
1	1546	7516
1	1530	7517
1	1526	7518
1	1518	7519
1	1512	7520
1	1507	7521
1	1513	7522
1	1516	7523
1	1517	7524
1	1515	7525
1	1515	7526
1	1512	7527
1	1511	7528
1	1504	7529
1	1503	7530
1	1500	7531
1	1490	7532
1	1492	7533
1	1494	7534
1	1502	7535
1	1507	7536
1	1521	7537
1	1526	7538
1	1526	7539
1	1521	7540
1	1525	7541
1	1521	7542
1	1520	7543
1	1520	7544
1	1520	7545
1	1518	7546
1	1517	7547
1	1517	7548
1	1520	7549
1	1525	7550
1	1528	7551
1	1531	7552
1	1535	7553
1	1541	7554
1	1543	7555
1	1551	7556
1	1554	7557
1	1556	7558
1	1561	7559
1	1567	7560
1	1573	7561
1	1574	7562
1	1576	7563
1	1575	7564
1	1572	7565
1	1567	7566
1	1566	7567
1	1562	7568
1	1560	7569
1	1555	7570
1	1548	7571
1	1538	7572
1	1526	7573
1	1517	7574
1	1513	7575
1	1510	7576
1	1504	7577
1	1504	7578
1	1507	7579
1	1503	7580
1	1503	7581
1	1507	7582
1	1511	7583
1	1517	7584
1	1524	7585
1	1529	7586
1	1534	7587
1	1536	7588
1	1539	7589
1	1541	7590
1	1539	7591
1	1531	7592
1	1528	7593
1	1528	7594
1	1525	7595
1	1521	7596
1	1526	7597
1	1528	7598
1	1530	7599
1	1530	7600
1	1534	7601
1	1536	7602
1	1539	7603
1	1542	7604
1	1542	7605
1	1538	7606
1	1531	7607
1	1530	7608
1	1531	7609
1	1531	7610
1	1532	7611
1	1538	7612
1	1534	7613
1	1533	7614
1	1530	7615
1	1530	7616
1	1526	7617
1	1523	7618
1	1520	7619
1	1520	7620
1	1521	7621
1	1518	7622
1	1517	7623
1	1521	7624
1	1521	7625
1	1521	7626
1	1529	7627
1	1530	7628
1	1531	7629
1	1531	7630
1	1529	7631
1	1529	7632
1	1525	7633
1	1521	7634
1	1521	7635
1	1521	7636
1	1520	7637
1	1526	7638
1	1534	7639
1	1540	7640
1	1547	7641
1	1556	7642
1	1557	7643
1	1553	7644
1	1549	7645
1	1542	7646
1	1529	7647
1	1520	7648
1	1511	7649
1	1505	7650
1	1503	7651
1	1495	7652
1	1497	7653
1	1499	7654
1	1503	7655
1	1505	7656
1	1516	7657
1	1524	7658
1	1533	7659
1	1546	7660
1	1555	7661
1	1564	7662
1	1566	7663
1	1567	7664
1	1567	7665
1	1563	7666
1	1553	7667
1	1548	7668
1	1544	7669
1	1542	7670
1	1533	7671
1	1530	7672
1	1523	7673
1	1509	7674
1	1502	7675
1	1494	7676
1	1492	7677
1	1497	7678
1	1503	7679
1	1508	7680
1	1517	7681
1	1524	7682
1	1529	7683
1	1539	7684
1	1548	7685
1	1555	7686
1	1572	7687
1	1574	7688
1	1568	7689
1	1559	7690
1	1549	7691
1	1538	7692
1	1527	7693
1	1517	7694
1	1508	7695
1	1503	7696
1	1494	7697
1	1490	7698
1	1487	7699
1	1484	7700
1	1485	7701
1	1498	7702
1	1503	7703
1	1515	7704
1	1528	7705
1	1539	7706
1	1554	7707
1	1563	7708
1	1571	7709
1	1574	7710
1	1571	7711
1	1555	7712
1	1550	7713
1	1543	7714
1	1538	7715
1	1529	7716
1	1527	7717
1	1519	7718
1	1512	7719
1	1510	7720
1	1508	7721
1	1510	7722
1	1513	7723
1	1516	7724
1	1521	7725
1	1526	7726
1	1525	7727
1	1526	7728
1	1528	7729
1	1529	7730
1	1528	7731
1	1536	7732
1	1536	7733
1	1536	7734
1	1536	7735
1	1536	7736
1	1539	7737
1	1535	7738
1	1527	7739
1	1518	7740
1	1512	7741
1	1508	7742
1	1505	7743
1	1502	7744
1	1495	7745
1	1484	7746
1	1476	7747
1	1466	7748
1	1454	7749
1	1447	7750
1	1441	7751
1	1440	7752
1	1446	7753
1	1449	7754
1	1455	7755
1	1467	7756
1	1476	7757
1	1482	7758
1	1490	7759
1	1491	7760
1	1492	7761
1	1503	7762
1	1507	7763
1	1512	7764
1	1518	7765
1	1524	7766
1	1529	7767
1	1530	7768
1	1534	7769
1	1536	7770
1	1536	7771
1	1529	7772
1	1526	7773
1	1524	7774
1	1519	7775
1	1517	7776
1	1520	7777
1	1517	7778
1	1515	7779
1	1513	7780
1	1508	7781
1	1505	7782
1	1503	7783
1	1499	7784
1	1492	7785
1	1489	7786
1	1477	7787
1	1476	7788
1	1476	7789
1	1479	7790
1	1485	7791
1	1499	7792
1	1503	7793
1	1507	7794
1	1508	7795
1	1508	7796
1	1504	7797
1	1503	7798
1	1501	7799
1	1499	7800
1	1500	7801
1	1503	7802
1	1503	7803
1	1508	7804
1	1512	7805
1	1513	7806
1	1521	7807
1	1521	7808
1	1517	7809
1	1513	7810
1	1506	7811
1	1500	7812
1	1490	7813
1	1476	7814
1	1467	7815
1	1463	7816
1	1458	7817
1	1461	7818
1	1464	7819
1	1469	7820
1	1472	7821
1	1485	7822
1	1497	7823
1	1507	7824
1	1519	7825
1	1529	7826
1	1535	7827
1	1544	7828
1	1555	7829
1	1566	7830
1	1581	7831
1	1595	7832
1	1615	7833
1	1635	7834
1	1656	7835
1	1674	7836
1	1707	7837
1	1734	7838
1	1751	7839
1	1778	7840
1	1826	7841
1	1856	7842
1	1895	7843
1	1930	7844
1	1963	7845
1	1994	7846
1	2021	7847
1	2042	7848
1	2066	7849
1	2088	7850
1	2106	7851
1	2131	7852
1	2153	7853
1	2170	7854
1	2184	7855
1	2205	7856
1	2209	7857
1	2204	7858
1	2183	7859
1	1463	7880
1	1472	7881
1	1494	7882
1	1507	7883
1	1517	7884
1	1527	7885
1	1534	7886
1	1537	7887
1	1536	7888
1	1529	7889
1	1521	7890
1	1512	7891
1	1499	7892
1	1489	7893
1	1476	7894
1	1467	7895
1	1459	7896
1	1464	7897
1	1466	7898
1	1472	7899
1	1480	7900
1	1490	7901
1	1499	7902
1	1503	7903
1	1503	7904
1	1503	7905
1	1502	7906
1	1494	7907
1	1495	7908
1	1499	7909
1	1501	7910
1	1497	7911
1	1503	7912
1	1499	7913
1	1490	7914
1	1482	7915
1	1479	7916
1	1476	7917
1	1478	7918
1	1481	7919
1	2158	7880
1	2117	7881
1	2051	7882
1	2000	7883
1	1929	7884
1	1857	7885
1	1782	7886
1	1722	7887
1	1660	7888
1	1603	7889
1	1558	7890
1	1529	7891
1	1505	7892
1	1491	7893
1	1477	7894
1	1468	7895
1	1460	7896
1	1451	7897
1	1452	7898
1	1456	7899
1	1485	7920
1	1490	7921
1	1490	7922
1	1494	7923
1	1497	7924
1	1499	7925
1	1500	7926
1	1508	7927
1	1515	7928
1	1517	7929
1	1518	7930
1	1520	7931
1	1521	7932
1	1520	7933
1	1524	7934
1	1527	7935
1	1529	7936
1	1523	7937
1	1525	7938
1	1525	7939
1	1525	7940
1	1526	7941
1	1534	7942
1	1537	7943
1	1533	7944
1	1538	7945
1	1535	7946
1	1530	7947
1	1529	7948
1	1528	7949
1	1526	7950
1	1525	7951
1	1517	7952
1	1514	7953
1	1514	7954
1	1513	7955
1	1504	7956
1	1507	7957
1	1503	7958
1	1508	7959
1	1551	7980
1	1556	7981
1	1557	7982
1	1561	7983
1	1564	7984
1	1565	7985
1	1562	7986
1	1570	7987
1	1566	7988
1	1561	7989
1	1559	7990
1	1557	7991
1	1557	7992
1	1561	7993
1	1560	7994
1	1563	7995
1	1564	7996
1	1556	7997
1	1554	7998
1	1549	7999
1	1518	7960
1	1525	7961
1	1529	7962
1	1537	7963
1	1544	7964
1	1553	7965
1	1559	7966
1	1557	7967
1	1557	7968
1	1555	7969
1	1553	7970
1	1544	7971
1	1550	7972
1	1547	7973
1	1544	7974
1	1537	7975
1	1531	7976
1	1530	7977
1	1537	7978
1	1543	7979
1	1547	8000
1	1541	8000
1	1553	8002
1	1555	8003
1	1557	8004
1	1559	8005
1	1565	8006
1	1572	8007
1	1580	8008
1	1582	8009
1	1592	8010
1	1597	8011
1	1594	8012
1	1593	8013
1	1586	8013
1	1581	8015
1	1567	8016
1	1571	8016
1	1569	8018
1	1566	8019
1	1567	8020
1	1566	8021
1	1570	8022
1	1580	8023
1	1589	8024
1	1605	8025
1	1616	8026
1	1625	8027
1	1630	8028
1	1634	8029
1	1634	8029
1	1629	8031
1	1632	8032
1	1623	8032
1	1618	8034
1	1608	8035
1	1602	8036
1	1594	8037
1	1589	8038
1	1585	8039
1	1587	8040
1	1592	8041
1	1596	8042
1	1605	8043
1	1607	8044
1	1616	8045
1	1620	8045
1	1633	8047
1	1634	8048
1	1639	8048
1	1638	8050
1	1646	8051
1	1649	8052
1	1650	8053
1	1651	8054
1	1651	8055
1	1649	8056
1	1639	8057
1	1635	8058
1	1633	8059
1	1629	8060
1	1622	8061
1	1625	8061
1	1621	8063
1	1620	8064
1	1621	8064
1	1626	8066
1	1629	8067
1	1634	8068
1	1642	8069
1	1646	8070
1	1651	8071
1	1654	8072
1	1660	8073
1	1665	8074
1	1674	8074
1	1682	8076
1	1699	8077
1	1700	8077
1	1699	8079
1	1693	8080
1	1688	8080
1	1685	8082
1	1682	8083
1	1683	8084
1	1683	8085
1	1686	8086
1	1688	8087
1	1695	8088
1	1699	8089
1	1701	8090
1	1699	8090
1	1710	8092
1	1706	8093
1	1699	8093
1	1697	8095
1	1693	8096
1	1697	8096
1	1699	8098
1	1701	8099
1	1706	8100
1	1710	8101
1	1704	8102
1	1701	8103
1	1704	8104
1	1702	8105
1	1699	8106
1	1710	8106
1	1713	8108
1	1714	8109
1	1713	8109
1	1713	8111
1	1713	8112
1	1712	8113
1	1707	8114
1	1698	8115
1	1687	8116
1	1668	8117
1	1660	8118
1	1652	8119
1	1643	8120
1	1628	8121
1	1629	8122
1	1620	8122
1	1620	8124
1	1622	8125
1	1623	8125
1	1626	8127
1	1624	8128
1	1621	8129
1	1617	8130
1	1613	8131
1	1607	8132
1	1605	8133
1	1607	8134
1	1607	8135
1	1606	8136
1	1614	8137
1	1612	8138
1	1606	8138
1	1598	8140
1	1598	8141
1	1590	8141
1	1584	8143
1	1580	8144
1	1575	8145
1	1571	8146
1	1569	8147
1	1567	8148
1	1568	8149
1	1567	8150
1	1564	8151
1	1572	8152
1	1572	8153
1	1576	8154
1	1570	8154
1	1569	8156
1	1561	8157
1	1557	8157
1	1555	8159
1	1553	8160
1	1551	8161
1	1542	8162
1	1541	8163
1	1539	8164
1	1535	8165
1	1530	8166
1	1536	8167
1	1538	8168
1	1535	8169
1	1534	8170
1	1538	8170
1	1535	8172
1	1537	8173
1	1536	8173
1	1529	8175
1	1531	8176
1	1523	8177
1	1521	8178
1	1510	8179
1	1503	8180
1	1495	8181
1	1503	8182
1	1503	8183
1	1508	8184
1	1512	8185
1	1515	8186
1	1516	8186
1	1517	8188
1	1520	8189
1	1524	8189
1	1521	8191
1	1517	8192
1	1515	8193
1	1512	8194
1	1509	8195
1	1503	8196
1	1503	8197
1	1503	8198
1	1503	8199
1	1508	8200
1	1519	8201
1	1528	8202
1	1529	8203
1	1528	8204
1	1528	8205
1	1525	8206
1	1521	8207
1	1523	8208
1	1521	8209
1	1520	8210
1	1515	8211
1	1518	8212
1	1515	8213
1	1514	8214
1	1516	8215
1	1518	8216
1	1523	8217
1	1527	8218
1	1530	8219
1	1534	8220
1	1541	8221
1	1541	8222
1	1545	8223
1	1548	8224
1	1550	8225
1	1544	8226
1	1551	8227
1	1547	8228
1	1542	8229
1	1539	8230
1	1533	8231
1	1529	8232
1	1520	8233
1	1516	8234
1	1515	8235
1	1517	8236
1	1517	8237
1	1523	8238
1	1526	8239
1	1527	8240
1	1526	8241
1	1521	8242
1	1519	8243
1	1512	8244
1	1502	8245
1	1503	8246
1	1506	8247
1	1513	8248
1	1518	8249
1	1523	8250
1	1526	8251
1	1521	8252
1	1521	8253
1	1524	8254
1	1528	8255
1	1529	8256
1	1531	8257
1	1533	8258
1	1538	8259
1	1546	8260
1	1554	8261
1	1556	8262
1	1560	8263
1	1563	8264
1	1566	8265
1	1564	8266
1	1555	8267
1	1555	8268
1	1555	8269
1	1555	8270
1	1554	8271
1	1557	8272
1	1556	8273
1	1553	8274
1	1544	8275
1	1538	8276
1	1529	8277
1	1524	8278
1	1520	8279
1	1525	8280
1	1530	8281
1	1533	8282
1	1540	8283
1	1544	8284
1	1550	8285
1	1550	8286
1	1555	8287
1	1550	8288
1	1541	8289
1	1536	8290
1	1533	8291
1	1538	8292
1	1543	8293
1	1549	8294
1	1555	8295
1	1561	8296
1	1564	8297
1	1567	8298
1	1571	8299
1	1569	8300
1	1565	8301
1	1564	8302
1	1560	8303
1	1555	8304
1	1553	8305
1	1548	8306
1	1543	8307
1	1540	8308
1	1539	8309
1	1539	8310
1	1541	8311
1	1541	8312
1	1539	8313
1	1538	8314
1	1538	8315
1	1534	8316
1	1537	8317
1	1538	8318
1	1536	8319
1	1538	8320
1	1539	8321
1	1543	8322
1	1549	8323
1	1556	8324
1	1571	8325
1	1581	8326
1	1589	8327
1	1594	8328
1	1595	8329
1	1595	8330
1	1594	8331
1	1594	8332
1	1592	8333
1	1584	8334
1	1582	8335
1	1581	8336
1	1581	8337
1	1580	8338
1	1571	8339
1	1568	8340
1	1564	8341
1	1564	8342
1	1566	8343
1	1570	8344
1	1577	8345
1	1581	8346
1	1581	8347
1	1581	8348
1	1575	8349
1	1569	8350
1	1571	8351
1	1564	8352
1	1562	8353
1	1561	8354
1	1559	8355
1	1557	8356
1	1553	8357
1	1551	8358
1	1553	8359
1	1550	8360
1	1550	8361
1	1554	8362
1	1554	8363
1	1553	8364
1	1552	8365
1	1549	8366
1	1551	8367
1	1549	8368
1	1554	8369
1	1554	8370
1	1555	8371
1	1551	8372
1	1548	8373
1	1548	8374
1	1551	8375
1	1553	8376
1	1557	8377
1	1557	8378
1	1555	8379
1	1529	8400
1	1529	8401
1	1528	8402
1	1527	8403
1	1528	8404
1	1529	8405
1	1533	8406
1	1549	8407
1	1558	8408
1	1574	8409
1	1589	8410
1	1596	8411
1	1605	8412
1	1607	8413
1	1609	8414
1	1611	8415
1	1612	8416
1	1610	8417
1	1611	8418
1	1611	8419
1	1555	8380
1	1556	8381
1	1563	8382
1	1569	8383
1	1572	8384
1	1580	8385
1	1585	8386
1	1589	8387
1	1592	8388
1	1592	8389
1	1590	8390
1	1585	8391
1	1582	8392
1	1575	8393
1	1566	8394
1	1557	8395
1	1553	8396
1	1544	8397
1	1541	8398
1	1529	8399
1	1610	8420
1	1608	8421
1	1607	8422
1	1600	8423
1	1593	8424
1	1589	8425
1	1584	8426
1	1582	8427
1	1583	8428
1	1584	8429
1	1583	8430
1	1583	8431
1	1579	8432
1	1579	8433
1	1576	8434
1	1575	8435
1	1572	8436
1	1574	8437
1	1568	8438
1	1561	8439
1	1589	8460
1	1585	8461
1	1581	8462
1	1581	8463
1	1586	8464
1	1591	8465
1	1595	8466
1	1598	8467
1	1605	8468
1	1600	8469
1	1594	8470
1	1587	8471
1	1580	8472
1	1576	8473
1	1569	8474
1	1567	8475
1	1566	8476
1	1561	8477
1	1565	8478
1	1573	8479
1	1560	8440
1	1566	8441
1	1564	8442
1	1567	8443
1	1573	8444
1	1578	8445
1	1581	8446
1	1581	8447
1	1581	8448
1	1579	8449
1	1579	8450
1	1575	8451
1	1577	8452
1	1576	8453
1	1580	8454
1	1582	8455
1	1596	8456
1	1599	8457
1	1597	8458
1	1593	8459
1	1580	8480
1	1585	8481
1	1599	8482
1	1608	8483
1	1620	8484
1	1631	8485
1	1634	8486
1	1642	8487
1	1644	8488
1	1639	8489
1	1633	8490
1	1622	8491
1	1607	8492
1	1598	8493
1	1593	8494
1	1592	8495
1	1592	8496
1	1599	8497
1	1604	8498
1	1607	8499
1	1605	8500
1	1600	8501
1	1596	8502
1	1594	8503
1	1589	8504
1	1585	8505
1	1584	8506
1	1580	8507
1	1580	8508
1	1581	8509
1	1581	8510
1	1587	8511
1	1595	8512
1	1602	8513
1	1600	8514
1	1600	8515
1	1603	8516
1	1607	8517
1	1612	8518
1	1621	8519
1	1625	8520
1	1624	8521
1	1613	8522
1	1612	8523
1	1609	8524
1	1607	8525
1	1603	8526
1	1610	8527
1	1607	8528
1	1607	8529
1	1607	8530
1	1606	8531
1	1605	8532
1	1605	8533
1	1607	8534
1	1608	8535
1	1619	8536
1	1622	8537
1	1629	8538
1	1633	8539
1	1634	8540
1	1632	8541
1	1625	8542
1	1625	8543
1	1621	8544
1	1622	8545
1	1625	8546
1	1625	8547
1	1625	8548
1	1625	8549
1	1622	8550
1	1623	8551
1	1619	8552
1	1618	8553
1	1618	8554
1	1613	8555
1	1611	8556
1	1610	8557
1	1611	8558
1	1611	8559
1	1617	8560
1	1618	8561
1	1617	8562
1	1620	8563
1	1629	8564
1	1634	8565
1	1638	8566
1	1634	8567
1	1628	8568
1	1616	8569
1	1605	8570
1	1596	8571
1	1590	8572
1	1589	8573
1	1586	8574
1	1584	8575
1	1584	8576
1	1586	8577
1	1593	8578
1	1603	8579
1	1643	8600
1	1643	8601
1	1643	8602
1	1653	8603
1	1660	8604
1	1666	8605
1	1673	8606
1	1677	8607
1	1683	8608
1	1683	8609
1	1682	8610
1	1683	8611
1	1674	8612
1	1673	8613
1	1673	8614
1	1672	8615
1	1674	8616
1	1670	8617
1	1671	8618
1	1664	8619
1	1617	8580
1	1634	8581
1	1644	8582
1	1652	8583
1	1659	8584
1	1660	8585
1	1660	8586
1	1660	8587
1	1665	8588
1	1665	8589
1	1665	8590
1	1667	8591
1	1664	8592
1	1661	8593
1	1660	8594
1	1659	8595
1	1657	8596
1	1659	8597
1	1648	8598
1	1646	8599
1	1661	8620
1	1660	8621
1	1656	8622
1	1649	8623
1	1646	8624
1	1644	8625
1	1649	8626
1	1657	8627
1	1656	8628
1	1656	8629
1	1652	8630
1	1647	8631
1	1638	8632
1	1636	8633
1	1634	8634
1	1634	8635
1	1636	8636
1	1639	8637
1	1646	8638
1	1647	8639
1	1654	8640
1	1660	8641
1	1661	8642
1	1660	8643
1	1659	8644
1	1657	8645
1	1652	8646
1	1652	8647
1	1647	8648
1	1644	8649
1	1639	8650
1	1636	8651
1	1625	8652
1	1612	8653
1	1608	8654
1	1607	8655
1	1609	8656
1	1616	8657
1	1616	8658
1	1619	8659
1	1623	8660
1	1626	8661
1	1631	8662
1	1638	8663
1	1636	8664
1	1635	8665
1	1634	8666
1	1634	8667
1	1631	8668
1	1629	8669
1	1625	8670
1	1620	8671
1	1621	8672
1	1613	8673
1	1616	8674
1	1611	8675
1	1615	8676
1	1612	8677
1	1618	8678
1	1624	8679
1	1633	8680
1	1642	8681
1	1654	8682
1	1660	8683
1	1662	8684
1	1661	8685
1	1657	8686
1	1649	8687
1	1634	8688
1	1634	8689
1	1633	8690
1	1634	8691
1	1639	8692
1	1639	8693
1	1643	8694
1	1646	8695
1	1651	8696
1	1657	8697
1	1661	8698
1	1660	8699
1	1660	8700
1	1660	8701
1	1659	8702
1	1655	8703
1	1650	8704
1	1649	8705
1	1647	8706
1	1647	8707
1	1655	8708
1	1654	8709
1	1652	8710
1	1644	8711
1	1634	8712
1	1626	8713
1	1612	8714
1	1603	8715
1	1593	8716
1	1589	8717
1	1580	8718
1	1574	8719
1	1579	8720
1	1585	8721
1	1597	8722
1	1616	8723
1	1631	8724
1	1644	8725
1	1660	8726
1	1680	8727
1	1697	8728
1	1711	8729
1	1724	8730
1	1738	8731
1	1755	8732
1	1767	8733
1	1792	8734
1	1826	8735
1	1856	8736
1	1888	8737
1	1920	8738
1	1947	8739
1	1968	8740
1	2000	8741
1	2017	8742
1	2038	8743
1	2058	8744
1	2084	8745
1	2108	8746
1	2132	8747
1	2160	8748
1	2183	8749
1	2207	8750
1	2235	8751
1	2257	8752
1	2273	8753
1	2288	8754
1	2300	8755
1	2322	8756
1	2332	8757
1	2332	8758
1	2327	8759
1	2312	8760
1	2280	8761
1	2240	8762
1	2179	8763
1	2118	8764
1	2053	8765
1	1991	8766
1	1930	8767
1	1881	8768
1	1836	8769
1	1791	8770
1	1759	8771
1	1728	8772
1	1704	8773
1	1686	8774
1	1672	8775
1	1660	8776
1	1655	8777
1	1639	8778
1	1634	8779
1	1625	8780
1	1620	8781
1	1619	8782
1	1616	8783
1	1613	8784
1	1616	8785
1	1620	8786
1	1616	8787
1	1610	8788
1	1607	8789
1	1607	8790
1	1611	8791
1	1623	8792
1	1629	8793
1	1639	8794
1	1647	8795
1	1659	8796
1	1673	8797
1	1677	8798
1	1684	8799
1	1686	8800
1	1686	8801
1	1686	8802
1	1685	8803
1	1678	8804
1	1665	8805
1	1658	8806
1	1647	8807
1	1630	8808
1	1621	8809
1	1616	8810
1	1616	8811
1	1616	8812
1	1626	8813
1	1634	8814
1	1638	8815
1	1646	8816
1	1649	8817
1	1652	8818
1	1656	8819
1	1650	8840
1	1656	8841
1	1660	8842
1	1665	8843
1	1667	8844
1	1664	8845
1	1668	8846
1	1669	8847
1	1670	8848
1	1672	8849
1	1678	8850
1	1682	8851
1	1682	8852
1	1674	8853
1	1674	8854
1	1676	8855
1	1682	8856
1	1686	8857
1	1688	8858
1	1695	8859
1	1657	8820
1	1660	8821
1	1661	8822
1	1660	8823
1	1662	8824
1	1664	8825
1	1660	8826
1	1655	8827
1	1652	8828
1	1647	8829
1	1643	8830
1	1636	8831
1	1635	8832
1	1634	8833
1	1635	8834
1	1638	8835
1	1643	8836
1	1648	8837
1	1647	8838
1	1649	8839
1	1678	8880
1	1680	8881
1	1680	8882
1	1672	8883
1	1671	8884
1	1674	8885
1	1686	8886
1	1699	8887
1	1710	8888
1	1716	8889
1	1725	8890
1	1730	8891
1	1736	8892
1	1738	8893
1	1742	8894
1	1744	8895
1	1744	8896
1	1743	8897
1	1737	8898
1	1727	8899
1	1716	8900
1	1708	8901
1	1707	8902
1	1699	8903
1	1697	8904
1	1697	8905
1	1699	8906
1	1701	8907
1	1706	8908
1	1712	8909
1	1716	8910
1	1727	8911
1	1737	8912
1	1736	8913
1	1739	8914
1	1739	8915
1	1744	8916
1	1751	8917
1	1752	8918
1	1752	8919
1	1708	8880
1	1715	8881
1	1726	8882
1	1731	8883
1	1736	8884
1	1735	8885
1	1734	8886
1	1733	8887
1	1721	8888
1	1715	8889
1	1714	8890
1	1712	8891
1	1704	8892
1	1702	8893
1	1694	8894
1	1686	8895
1	1680	8896
1	1674	8897
1	1673	8898
1	1674	8899
1	1800	8940
1	1806	8941
1	1815	8942
1	1817	8943
1	1817	8944
1	1817	8945
1	1816	8946
1	1812	8947
1	1801	8948
1	1795	8949
1	1790	8950
1	1798	8951
1	1800	8952
1	1793	8953
1	1795	8954
1	1795	8955
1	1798	8956
1	1801	8957
1	1795	8958
1	1799	8959
1	1811	8960
1	1819	8961
1	1827	8962
1	1841	8963
1	1844	8964
1	1852	8965
1	1855	8966
1	1856	8967
1	1856	8968
1	1859	8969
1	1859	8970
1	1859	8971
1	1862	8972
1	1851	8973
1	1859	8974
1	1864	8975
1	1869	8976
1	1868	8977
1	1871	8978
1	1871	8979
1	1869	9000
1	1868	9001
1	1863	9002
1	1857	9003
1	1853	9004
1	1846	9005
1	1846	9006
1	1844	9007
1	1852	9008
1	1856	9009
1	1865	9010
1	1877	9011
1	1891	9012
1	1904	9013
1	1913	9014
1	1920	9015
1	1920	9016
1	1921	9017
1	1911	9018
1	1907	9019
1	1751	8920
1	1747	8921
1	1749	8922
1	1751	8923
1	1757	8924
1	1764	8925
1	1774	8926
1	1785	8927
1	1780	8928
1	1781	8929
1	1782	8930
1	1782	8931
1	1786	8932
1	1782	8933
1	1778	8934
1	1778	8935
1	1780	8936
1	1787	8937
1	1791	8938
1	1796	8939
1	1870	8980
1	1868	8981
1	1863	8982
1	1860	8983
1	1859	8984
1	1860	8985
1	1863	8986
1	1869	8987
1	1868	8988
1	1869	8989
1	1869	8990
1	1873	8991
1	1880	8992
1	1878	8993
1	1875	8994
1	1873	8995
1	1873	8996
1	1869	8997
1	1868	8998
1	1869	8999
1	1899	9020
1	1896	9021
1	1895	9022
1	1895	9023
1	1895	9024
1	1895	9025
1	1895	9026
1	1894	9027
1	1893	9028
1	1890	9029
1	1886	9030
1	1880	9031
1	1873	9032
1	1856	9033
1	1841	9034
1	1824	9035
1	1809	9036
1	1801	9037
1	1795	9038
1	1790	9039
1	1791	9040
1	1796	9041
1	1791	9042
1	1791	9043
1	1788	9044
1	1787	9045
1	1783	9046
1	1780	9047
1	1773	9048
1	1769	9049
1	1769	9050
1	1769	9051
1	1772	9052
1	1767	9053
1	1765	9054
1	1764	9055
1	1770	9056
1	1775	9057
1	1778	9058
1	1783	9059
1	1782	9060
1	1778	9061
1	1775	9062
1	1762	9063
1	1755	9064
1	1747	9065
1	1741	9066
1	1731	9067
1	1728	9068
1	1717	9069
1	1710	9070
1	1703	9071
1	1703	9072
1	1709	9073
1	1712	9074
1	1713	9075
1	1717	9076
1	1721	9077
1	1718	9078
1	1724	9079
1	1730	9080
1	1737	9081
1	1744	9082
1	1746	9083
1	1747	9084
1	1742	9085
1	1739	9086
1	1741	9087
1	1744	9088
1	1749	9089
1	1749	9090
1	1751	9091
1	1746	9092
1	1734	9093
1	1726	9094
1	1721	9095
1	1713	9096
1	1706	9097
1	1707	9098
1	1701	9099
1	1699	9100
1	1697	9101
1	1698	9102
1	1701	9103
1	1708	9104
1	1713	9105
1	1724	9106
1	1737	9107
1	1738	9108
1	1746	9109
1	1751	9110
1	1759	9111
1	1760	9112
1	1765	9113
1	1764	9114
1	1760	9115
1	1751	9116
1	1746	9117
1	1738	9118
1	1727	9119
1	1734	9140
1	1733	9141
1	1737	9142
1	1742	9143
1	1742	9144
1	1749	9145
1	1751	9146
1	1749	9147
1	1744	9148
1	1738	9149
1	1735	9150
1	1728	9151
1	1726	9152
1	1717	9153
1	1715	9154
1	1718	9155
1	1724	9156
1	1733	9157
1	1736	9158
1	1738	9159
1	1717	9120
1	1711	9121
1	1703	9122
1	1697	9123
1	1699	9124
1	1702	9125
1	1711	9126
1	1715	9127
1	1726	9128
1	1725	9129
1	1724	9130
1	1724	9131
1	1726	9132
1	1728	9133
1	1728	9134
1	1728	9135
1	1728	9136
1	1730	9137
1	1729	9138
1	1734	9139
1	1751	9160
1	1752	9161
1	1757	9162
1	1760	9163
1	1759	9164
1	1759	9165
1	1756	9166
1	1760	9167
1	1750	9168
1	1743	9169
1	1739	9170
1	1738	9171
1	1731	9172
1	1736	9173
1	1731	9174
1	1730	9175
1	1733	9176
1	1738	9177
1	1744	9178
1	1751	9179
1	1755	9180
1	1760	9181
1	1764	9182
1	1762	9183
1	1764	9184
1	1764	9185
1	1764	9186
1	1769	9187
1	1764	9188
1	1759	9189
1	1750	9190
1	1738	9191
1	1734	9192
1	1731	9193
1	1731	9194
1	1731	9195
1	1735	9196
1	1733	9197
1	1737	9198
1	1739	9199
1	1741	9200
1	1742	9201
1	1742	9202
1	1751	9203
1	1751	9204
1	1749	9205
1	1746	9206
1	1744	9207
1	1744	9208
1	1746	9209
1	1747	9210
1	1748	9211
1	1750	9212
1	1749	9213
1	1751	9214
1	1755	9215
1	1764	9216
1	1766	9217
1	1781	9218
1	1788	9219
1	1792	9220
1	1798	9221
1	1796	9222
1	1789	9223
1	1773	9224
1	1760	9225
1	1747	9226
1	1738	9227
1	1723	9228
1	1716	9229
1	1715	9230
1	1721	9231
1	1732	9232
1	1736	9233
1	1738	9234
1	1743	9235
1	1750	9236
1	1760	9237
1	1769	9238
1	1770	9239
1	1775	9240
1	1775	9241
1	1773	9242
1	1766	9243
1	1759	9244
1	1751	9245
1	1750	9246
1	1747	9247
1	1751	9248
1	1754	9249
1	1755	9250
1	1761	9251
1	1760	9252
1	1759	9253
1	1756	9254
1	1755	9255
1	1757	9256
1	1762	9257
1	1757	9258
1	1760	9259
1	1760	9280
1	1756	9281
1	1752	9282
1	1755	9283
1	1760	9284
1	1764	9285
1	1770	9286
1	1773	9287
1	1764	9288
1	1764	9289
1	1757	9290
1	1751	9291
1	1753	9292
1	1752	9293
1	1753	9294
1	1762	9295
1	1767	9296
1	1765	9297
1	1770	9298
1	1774	9299
1	1757	9260
1	1755	9261
1	1751	9262
1	1751	9263
1	1751	9264
1	1751	9265
1	1759	9266
1	1764	9267
1	1768	9268
1	1772	9269
1	1770	9270
1	1769	9271
1	1768	9272
1	1763	9273
1	1764	9274
1	1764	9275
1	1762	9276
1	1764	9277
1	1764	9278
1	1763	9279
1	1776	9300
1	1777	9301
1	1778	9302
1	1781	9303
1	1780	9304
1	1779	9305
1	1778	9306
1	1775	9307
1	1775	9308
1	1771	9309
1	1764	9310
1	1764	9311
1	1762	9312
1	1762	9313
1	1764	9314
1	1764	9315
1	1769	9316
1	1769	9317
1	1764	9318
1	1754	9319
1	1748	9320
1	1744	9321
1	1742	9322
1	1750	9323
1	1752	9324
1	1755	9325
1	1764	9326
1	1766	9327
1	1767	9328
1	1769	9329
1	1766	9330
1	1764	9331
1	1764	9332
1	1754	9333
1	1749	9334
1	1744	9335
1	1740	9336
1	1743	9337
1	1742	9338
1	1738	9339
1	1739	9340
1	1750	9341
1	1749	9342
1	1751	9343
1	1753	9344
1	1759	9345
1	1765	9346
1	1778	9347
1	1791	9348
1	1803	9349
1	1815	9350
1	1820	9351
1	1818	9352
1	1817	9353
1	1812	9354
1	1800	9355
1	1799	9356
1	1793	9357
1	1790	9358
1	1788	9359
1	1787	9360
1	1789	9361
1	1789	9362
1	1781	9363
1	1777	9364
1	1770	9365
1	1772	9366
1	1778	9367
1	1778	9368
1	1782	9369
1	1783	9370
1	1785	9371
1	1783	9372
1	1782	9373
1	1778	9374
1	1778	9375
1	1782	9376
1	1787	9377
1	1781	9378
1	1780	9379
1	1778	9380
1	1780	9381
1	1777	9382
1	1783	9383
1	1782	9384
1	1779	9385
1	1773	9386
1	1764	9387
1	1759	9388
1	1752	9389
1	1751	9390
1	1752	9391
1	1754	9392
1	1751	9393
1	1755	9394
1	1763	9395
1	1770	9396
1	1782	9397
1	1787	9398
1	1786	9399
1	1781	9400
1	1774	9401
1	1769	9402
1	1763	9403
1	1759	9404
1	1751	9405
1	1749	9406
1	1742	9407
1	1737	9408
1	1738	9409
1	1737	9410
1	1736	9411
1	1728	9412
1	1731	9413
1	1731	9414
1	1733	9415
1	1738	9416
1	1745	9417
1	1755	9418
1	1769	9419
1	1784	9420
1	1795	9421
1	1800	9422
1	1791	9423
1	1789	9424
1	1785	9425
1	1778	9426
1	1775	9427
1	1782	9428
1	1785	9429
1	1787	9430
1	1785	9431
1	1782	9432
1	1778	9433
1	1775	9434
1	1769	9435
1	1769	9436
1	1764	9437
1	1755	9438
1	1751	9439
1	1749	9440
1	1739	9441
1	1740	9442
1	1750	9443
1	1753	9444
1	1765	9445
1	1772	9446
1	1778	9447
1	1780	9448
1	1782	9449
1	1778	9450
1	1776	9451
1	1773	9452
1	1765	9453
1	1764	9454
1	1764	9455
1	1762	9456
1	1760	9457
1	1759	9458
1	1754	9459
1	1762	9460
1	1763	9461
1	1764	9462
1	1760	9463
1	1755	9464
1	1751	9465
1	1749	9466
1	1750	9467
1	1750	9468
1	1753	9469
1	1757	9470
1	1760	9471
1	1759	9472
1	1764	9473
1	1762	9474
1	1762	9475
1	1759	9476
1	1761	9477
1	1764	9478
1	1767	9479
1	1800	9500
1	1796	9501
1	1791	9502
1	1792	9503
1	1791	9504
1	1787	9505
1	1782	9506
1	1773	9507
1	1764	9508
1	1762	9509
1	1761	9510
1	1764	9511
1	1765	9512
1	1764	9513
1	1764	9514
1	1773	9515
1	1775	9516
1	1778	9517
1	1791	9518
1	1791	9519
1	1773	9480
1	1780	9481
1	1780	9482
1	1779	9483
1	1782	9484
1	1787	9485
1	1790	9486
1	1795	9487
1	1792	9488
1	1791	9489
1	1787	9490
1	1781	9491
1	1777	9492
1	1776	9493
1	1777	9494
1	1780	9495
1	1789	9496
1	1793	9497
1	1793	9498
1	1800	9499
1	1793	9540
1	1791	9541
1	1782	9542
1	1773	9543
1	1764	9544
1	1760	9545
1	1756	9546
1	1755	9547
1	1753	9548
1	1751	9549
1	1751	9550
1	1754	9551
1	1750	9552
1	1740	9553
1	1738	9554
1	1739	9555
1	1743	9556
1	1751	9557
1	1749	9558
1	1748	9559
1	1793	9520
1	1793	9521
1	1794	9522
1	1792	9523
1	1792	9524
1	1791	9525
1	1791	9526
1	1791	9527
1	1787	9528
1	1785	9529
1	1786	9530
1	1783	9531
1	1786	9532
1	1782	9533
1	1780	9534
1	1780	9535
1	1786	9536
1	1791	9537
1	1796	9538
1	1795	9539
1	1736	9580
1	1741	9581
1	1751	9582
1	1756	9583
1	1763	9584
1	1764	9585
1	1760	9586
1	1757	9587
1	1744	9588
1	1742	9589
1	1742	9590
1	1743	9591
1	1751	9592
1	1747	9593
1	1744	9594
1	1744	9595
1	1749	9596
1	1756	9597
1	1757	9598
1	1757	9599
1	1744	9560
1	1738	9561
1	1738	9562
1	1742	9563
1	1740	9564
1	1741	9565
1	1740	9566
1	1739	9567
1	1741	9568
1	1740	9569
1	1740	9570
1	1741	9571
1	1738	9572
1	1729	9573
1	1725	9574
1	1725	9575
1	1725	9576
1	1730	9577
1	1727	9578
1	1729	9579
1	1757	9600
1	1754	9601
1	1752	9602
1	1749	9603
1	1739	9604
1	1736	9605
1	1728	9606
1	1718	9607
1	1720	9608
1	1718	9609
1	1716	9610
1	1717	9611
1	1720	9612
1	1726	9613
1	1728	9614
1	1726	9615
1	1725	9616
1	1724	9617
1	1715	9618
1	1713	9619
1	1716	9620
1	1720	9621
1	1722	9622
1	1735	9623
1	1738	9624
1	1741	9625
1	1740	9626
1	1738	9627
1	1738	9628
1	1737	9629
1	1733	9630
1	1728	9631
1	1725	9632
1	1717	9633
1	1717	9634
1	1720	9635
1	1725	9636
1	1735	9637
1	1733	9638
1	1726	9639
1	1727	9640
1	1728	9641
1	1712	9642
1	1703	9643
1	1695	9644
1	1691	9645
1	1686	9646
1	1686	9647
1	1688	9648
1	1695	9649
1	1704	9650
1	1712	9651
1	1728	9652
1	1746	9653
1	1765	9654
1	1790	9655
1	1825	9656
1	1850	9657
1	1878	9658
1	1909	9659
1	1939	9660
1	1968	9661
1	1998	9662
1	2021	9663
1	2048	9664
1	2075	9665
1	2094	9666
1	2112	9667
1	2133	9668
1	2148	9669
1	2162	9670
1	2179	9671
1	2196	9672
1	2215	9673
1	2239	9674
1	2262	9675
1	2286	9676
1	2302	9677
1	2309	9678
1	2311	9679
1	2312	9680
1	2303	9681
1	2291	9682
1	2268	9683
1	2232	9684
1	2183	9685
1	2132	9686
1	2078	9687
1	2015	9688
1	1959	9689
1	1905	9690
1	1859	9691
1	1825	9692
1	1785	9693
1	1760	9694
1	1738	9695
1	1725	9696
1	1718	9697
1	1711	9698
1	1705	9699
1	1700	9700
1	1695	9701
1	1686	9702
1	1677	9703
1	1670	9704
1	1669	9705
1	1664	9706
1	1660	9707
1	1649	9708
1	1647	9709
1	1645	9710
1	1647	9711
1	1656	9712
1	1661	9713
1	1671	9714
1	1680	9715
1	1688	9716
1	1697	9717
1	1701	9718
1	1707	9719
1	1685	9740
1	1682	9741
1	1679	9742
1	1682	9743
1	1670	9744
1	1670	9745
1	1674	9746
1	1672	9747
1	1668	9748
1	1667	9749
1	1668	9750
1	1670	9751
1	1672	9752
1	1671	9753
1	1670	9754
1	1669	9755
1	1670	9756
1	1671	9757
1	1674	9758
1	1679	9759
1	1707	9720
1	1706	9721
1	1701	9722
1	1689	9723
1	1686	9724
1	1682	9725
1	1674	9726
1	1674	9727
1	1673	9728
1	1669	9729
1	1670	9730
1	1672	9731
1	1679	9732
1	1684	9733
1	1687	9734
1	1692	9735
1	1693	9736
1	1695	9737
1	1688	9738
1	1686	9739
1	1683	9760
1	1690	9761
1	1690	9762
1	1691	9763
1	1692	9764
1	1696	9765
1	1697	9766
1	1697	9767
1	1688	9768
1	1686	9769
1	1686	9770
1	1686	9771
1	1685	9772
1	1688	9773
1	1689	9774
1	1690	9775
1	1693	9776
1	1694	9777
1	1697	9778
1	1703	9779
1	1710	9800
1	1715	9801
1	1717	9802
1	1710	9803
1	1709	9804
1	1703	9805
1	1700	9806
1	1707	9807
1	1709	9808
1	1709	9809
1	1705	9810
1	1702	9811
1	1698	9812
1	1697	9813
1	1695	9814
1	1693	9815
1	1692	9816
1	1695	9817
1	1690	9818
1	1691	9819
1	1697	9800
1	1705	9801
1	1713	9802
1	1716	9803
1	1717	9804
1	1718	9805
1	1718	9806
1	1719	9807
1	1716	9808
1	1715	9809
1	1712	9810
1	1703	9811
1	1692	9812
1	1680	9813
1	1677	9814
1	1679	9815
1	1684	9816
1	1695	9817
1	1699	9818
1	1699	9819
1	1698	9820
1	1695	9821
1	1691	9822
1	1689	9823
1	1690	9824
1	1695	9825
1	1698	9826
1	1700	9827
1	1697	9828
1	1698	9829
1	1697	9830
1	1695	9831
1	1698	9832
1	1696	9833
1	1696	9834
1	1692	9835
1	1690	9836
1	1691	9837
1	1693	9838
1	1692	9839
1	1737	9860
1	1746	9861
1	1752	9862
1	1764	9863
1	1767	9864
1	1769	9865
1	1769	9866
1	1769	9867
1	1764	9868
1	1756	9869
1	1751	9870
1	1750	9871
1	1752	9872
1	1751	9873
1	1759	9874
1	1764	9875
1	1773	9876
1	1779	9877
1	1773	9878
1	1766	9879
1	1697	9840
1	1705	9841
1	1712	9842
1	1718	9843
1	1721	9844
1	1724	9845
1	1725	9846
1	1725	9847
1	1724	9848
1	1720	9849
1	1716	9850
1	1716	9851
1	1711	9852
1	1705	9853
1	1701	9854
1	1700	9855
1	1703	9856
1	1712	9857
1	1716	9858
1	1728	9859
1	1764	9880
1	1764	9881
1	1762	9882
1	1761	9883
1	1759	9884
1	1760	9885
1	1762	9886
1	1760	9887
1	1753	9888
1	1751	9889
1	1749	9890
1	1750	9891
1	1752	9892
1	1753	9893
1	1756	9894
1	1763	9895
1	1769	9896
1	1777	9897
1	1787	9898
1	1791	9899
1	1794	9900
1	1799	9901
1	1809	9902
1	1800	9903
1	1799	9904
1	1800	9905
1	1803	9906
1	1816	9907
1	1818	9908
1	1821	9909
1	1826	9910
1	1825	9911
1	1819	9912
1	1812	9913
1	1800	9914
1	1790	9915
1	1778	9916
1	1769	9917
1	1759	9918
1	1755	9919
1	1758	9920
1	1763	9921
1	1772	9922
1	1782	9923
1	1791	9924
1	1801	9925
1	1814	9926
1	1817	9927
1	1818	9928
1	1817	9929
1	1816	9930
1	1811	9931
1	1811	9932
1	1803	9933
1	1802	9934
1	1812	9935
1	1817	9936
1	1818	9937
1	1815	9938
1	1793	9939
1	1789	9940
1	1782	9941
1	1764	9942
1	1751	9943
1	1741	9944
1	1738	9945
1	1728	9946
1	1716	9947
1	1708	9948
1	1697	9949
1	1688	9950
1	1685	9951
1	1683	9952
1	1683	9953
1	1684	9954
1	1686	9955
1	1697	9956
1	1701	9957
1	1708	9958
1	1710	9959
1	1708	9960
1	1704	9961
1	1700	9962
1	1688	9963
1	1685	9964
1	1675	9965
1	1672	9966
1	1665	9967
1	1669	9968
1	1661	9969
1	1660	9970
1	1653	9971
1	1647	9972
1	1644	9973
1	1637	9974
1	1634	9975
1	1629	9976
1	1622	9977
1	1608	9978
1	1607	9979
1	1602	9980
1	1598	9981
1	1599	9982
1	1596	9983
1	1590	9984
1	1590	9985
1	1590	9986
1	1590	9987
1	1592	9988
1	1592	9989
1	1593	9990
1	1590	9991
1	1585	9992
1	1579	9993
1	1572	9994
1	1568	9995
1	1566	9996
1	1572	9997
1	1576	9998
1	1579	9999
1	1576	10000
1	1575	10001
1	1574	10002
1	1573	10003
1	1569	10004
1	1568	10005
1	1566	10006
1	1565	10007
1	1557	10008
1	1556	10009
1	1556	10010
1	1555	10011
1	1551	10012
1	1545	10013
1	1539	10014
1	1530	10015
1	1528	10016
1	1527	10017
1	1528	10018
1	1529	10019
1	1534	10020
1	1540	10021
1	1546	10022
1	1544	10023
1	1545	10024
1	1544	10025
1	1543	10026
1	1541	10027
1	1537	10028
1	1533	10029
1	1529	10030
1	1529	10031
1	1528	10032
1	1528	10033
1	1530	10034
1	1537	10035
1	1547	10036
1	1557	10037
1	1562	10038
1	1566	10039
1	1563	10040
1	1559	10041
1	1554	10042
1	1555	10043
1	1542	10044
1	1535	10045
1	1535	10046
1	1527	10047
1	1521	10048
1	1521	10049
1	1524	10050
1	1527	10051
1	1526	10052
1	1526	10053
1	1525	10054
1	1526	10055
1	1526	10056
1	1526	10057
1	1528	10058
1	1529	10059
1	1535	10060
1	1544	10061
1	1551	10062
1	1554	10063
1	1553	10064
1	1546	10065
1	1539	10066
1	1529	10067
1	1505	10068
1	1494	10069
1	1487	10070
1	1489	10071
1	1490	10072
1	1502	10073
1	1503	10074
1	1503	10075
1	1503	10076
1	1503	10077
1	1503	10078
1	1512	10079
1	1517	10080
1	1526	10081
1	1533	10082
1	1533	10083
1	1541	10084
1	1547	10085
1	1554	10086
1	1562	10087
1	1563	10088
1	1563	10089
1	1566	10090
1	1569	10091
1	1570	10092
